0.00963611599,0.009981363124,0.01059966071,0.01123240386,0.01181922075,0.01247100288,0.0132108328,0.0140544513,0.01500662835,0.01608057574,0.01727067681,0.01853446483,0.0198583477,0.02124061418,0.02267755334,0.02417236049,0.02572217159,0.02732501676,0.0289757194,0.03066227759,0.0323808113,0.03411966633,0.03587762731,0.03767784768,0.03951771194,0.04139766441,0.0433071665,0.04519140546,0.04703392452,0.0488577031,0.05066354379,0.05242269893,0.05414715409,0.0558253356,0.05748324856,0.0592542475,0.0611708207,0.06321630794,0.06537981167,0.06762850852,0.06993745061,0.07229555451,0.07467886191,0.07703440949,0.07933335509,0.08157341509,0.08373684783,0.08578182903,0.08769658909,0.08946254811,0.09107732069,0.09260228339,0.0940453327,0.09534840768,0.09649558205,0.09753023632,0.09841649966,0.09917108666,0.09973047861,0.09981771795,0.09936383572,0.09835718953,0.09681562474,0.09488740934,0.09261018371,0.09000901045,0.0870902371,0.08374442936,0.07996444326,0.07584482423,0.07142472361,0.06667264793,0.06165787095,0.05638457294,0.05095758225,0.04575819065,0.04090439913,0.0364091426,0.03227901768,0.02841762229,0.02479921066,0.02143070791,0.01830420566,0.0154223713,0.01277990991,0.01034316966,0.008101495757,0.006087217195,0.004281586752,0.002684240624,0.001259397506,-0.0001387215276,-0.00155416293,-0.002971913497,-0.004392054677,-0.005809651109,-0.007207796767,-0.008593403383,-0.009943928353,-0.01116161805,-0.01221776051,-0.0131238048,-0.01388069459,-0.01449226679,-0.01497074623,-0.01531277974,-0.01553434123,-0.01570212046,-0.01583673359,-0.01592852103,-0.01597840133,-0.01599081834,-0.015957594,-0.015888334,-0.01576971256,-0.01553295097,-0.01516345504,-0.01465949037,-0.01402877697,-0.01331724907,-0.01253748516,-0.0116979671,-0.01080178481,-0.009815642405,-0.008737075295,-0.00760219831,-0.006422802319,-0.005174549802,-0.003880299881,-2.54E-03,-0.001185762988,1.82E-05,0.001028547911,0.001851094941,0.00248792912,0.002972358188,0.003321949554,0.003535994983,0.003629092975,0.003640599428,0.003586407735,0.003477101816,0.003319100802,0.003102646281,0.002832723493,0.002513347593,0.002154063512,0.001784369892,0.001414700137,0.001047444579,0.0006849309907,0.0003226459037,-3.97E-05,-0.0003989425695,-0.0007544933416,-0.001107620283,-0.001457191645,-0.001805391936,-0.002150406041,-0.00248122365,-0.002796667585,-0.003094463167,-0.003376471065,-0.003661492549,-0.003953787223,-0.004241882783,-0.004523500098,-0.004808916709,-0.005091347635,-0.005374042093,-0.005644341198,-0.005844730922,-0.005960167404,-0.005994422835,-0.005950462139,-0.005844655212,-0.005685846356,-0.005475060409,-0.005219616858,-0.004934936223,-0.004627786383,-0.004308946682,-0.003981941747,-0.003633247744,-0.003267419716,-0.002884218735,-0.00249397423,-0.002141049857,-0.001837932885,-0.001580222203,-0.00136670278,-0.001191277426,-0.001047619468,-0.0009368723204,-0.0008519617092,-0.0007679773568,-0.0006771465039,-0.0005764320472,-0.000465151917,-0.0003531089322,-0.0002410847282,-0.0001294782991,-1.64E-05,0.0001102142605,0.0002529895187,0.0004085760136,0.0005754141225,0.0007516795044,0.0009338594762,0.001122594955,0.001313507094,0.001491600635,0.001652831651,0.001792158751,0.001909906281,0.002020711384,0.002124881524,0.002224945298,0.002316801817,0.00237245401,0.002385804199,0.002365697687,0.002315586305,0.002236206,0.002135482951,0.002013203947,0.001880137377,0.001774883334,0.001709393827,0.001686339823,0.001706477296,0.001757702266,0.001837905339,0.001947076707,0.002085865266,0.002262270891,0.002477493917,0.002727471985,0.003010222803,0.003326120513,0.003671856939,0.004044960351,0.004440893709,0.004846471394,0.005255316847,0.005672015935,0.006093524083,0.006503631845,0.006901936727,0.007283497664,0.007652963552,0.008048485575,0.008478642186,0.00892563496,0.009384997682,0.009867348432,0.01036050926,0.01086869933,0.01137164078,0.01178271947,0.01207862678,0.01226072179,0.01233245547,0.01232321652,0.01224412454,0.01209861272,0.0118931246,0.01162924253,0.01131243278,0.01095728505,0.01057118962,0.01015011373,0.009704667737,0.009234894862,0.008756659973,0.008325041098,0.00795546592,0.007661088549,0.007440912708,0.007253893337,0.007098104399,0.006963218429,0.00685943919,0.006863257049,0.006987474434,0.007219289772,0.00754507596,0.007923586231,0.008331271342,0.008766542387,0.009209200193,0.009623251209,0.009997485792,0.01026896258,0.01043163362,0.01061263399,0.01079884078,0.01097369323,0.01108227239,0.01085269037,0.01018364628,0.009263455193,0.008097482294,0.006256751248,0.003766221325,0.0009134916139,-0.002069562937,-0.004859802139,-0.007102490943,-0.008763393883,-0.009518958008,-0.008179058014,-0.004426172146,0.001562667586,0.009682926337,0.01978714759,0.03163914495,0.04492620847,0.05932154297,0.07445501344,0.0899146804,0.1054477989,0.1206348712,0.1345966215,0.1468742497,0.1573447799,0.1657703596,0.1716566048,0.1747897874,0.1753458947,0.1733233369,0.1681831067,0.1600080659,0.1492653212,0.1363512966,0.1217539583,0.106055485,0.08945367889,0.07252255004,0.05698663395,0.04340123781,0.03174575658,0.02203715937,0.01399744367,0.007439645821,0.002400034288,-0.001314536409,-0.004334284541,-0.006883990086,-0.009069085039,-0.01095115308,-0.012365893,-0.01334473911,-0.01392037444,-0.01418337817,-0.0144538029,-0.01483118927,-0.01532514422,-0.01594098423,-0.01659985017,-0.01727834277,-0.01798425867,-0.01870725609,-0.01943475113,-0.02015962403,-0.0208444805,-0.0214823748,-0.02212758435,-0.0227644782,-0.02340219796,-0.02400204753,-0.02437891501,-0.02448506549,-0.0243418182,-0.02396010192,-0.02337892454,-0.02263032631,-0.02171553495,-0.02066726005,-0.01958027309,-0.01848834472,-0.01741743205,-0.01637648771,-0.01532045831,-0.0142555234,-0.01318227629,-0.01212255995,-0.01117542167,-0.0103677855,-0.009685458588,-0.009124111101,-0.008673655986,-0.008317354219,-0.008057403646,-0.007873334433,-0.007691570879,-0.007489121234,-0.007260452445,-0.007003594808,-0.006741519134,-0.006477792538,-0.006210297413,-0.005937296923,-0.005644772534,-0.005328823263,-0.005001281996,-0.004663245356,-0.004297918451,-0.003910625345,-0.003498182015,-0.003073235315,-0.002698376696,-0.002390575827,-0.002136524829,-0.001933322261,-0.001782771749,-0.001673304857,-0.001607199267,-0.001567734,-0.00148708248,-0.001344805859,-0.001146159498,-0.0008910403977,-0.0005849546573,-0.000235162673,0.0001607103836,0.000594061714,0.001029464565,0.00145591914,0.001877503326,0.002293571248,0.002703394069,0.003110874749,0.003511097225,0.003910013561,0.004338795183,0.004803707638,0.005306687002,0.005843851585,0.006390669759,0.00694134176,0.007491523659,0.008040823047,0.008611689301,0.009207217533,0.009806697107,0.01040427124,0.01101620533,0.01162994341,0.01224755645,0.01284671385,0.01333371169,0.0136816653,0.0138978802,0.01398415347,0.01395427878,0.01382011864,0.01358068867,0.01324844588,0.01286545608,0.01244643727,0.01199256198,0.01150714687,0.01098751463,0.01043283741,0.009849484959,0.009236659353,0.008580443878,0.007880581475,0.007134730164,0.006347908787,0.005545001736,0.004731084466,0.003912325948,0.003087842541,0.002226114082,0.001322126484,0.000398783406,-0.0005369750656,-0.001499721894,-0.002474517236,-0.003463749273,-0.004442291909,-0.005307179071,-0.006028938785,-0.006611744091,-0.007057441819,-0.007388611086,-0.007617255944,-0.007743230855,-0.007776524923,-0.007743222128,-0.007654006997,-0.007516947939,-0.007336580272,-0.007105082326,-0.006826191683,-0.006502982863,-0.006142748716,-0.005768975909,-0.005390179421,-0.005005585345,-0.00461714714,-0.004227243715,-0.003835203768,-0.003443823073,-0.00305119912,-0.002642327807,-0.002213933485,-0.001771444968,-0.001316655205,-0.0008485263842,-0.00037137284,0.0001153946597,0.0006054899124,0.001074511191,0.001515322776,0.001927581077,0.00231144778,0.002674030684,0.003017593325,0.003342274101,0.003649102144,0.003938046661,0.004209902301,0.004467724749,0.004712728105,0.004943165595,0.005161064013,0.005365703573,0.005560467329,0.005758835982,0.005964038981,0.0061789469,0.006402592246,0.006623083549,0.006839177196,0.007048006487,0.007251583195,0.00746916757,0.007703945879,0.007949652947,0.00820262967,0.00845797919,0.008708878571,0.008955361361,0.009189448405,0.009386966907,0.009540744206,0.00964042529,0.009685543391,0.009700916041,0.009685645247,0.009643343128,0.009565156956,0.009398029355,0.009129415134,0.008774268933,0.008337772263,0.007820064937,0.007234379562,0.006580364507,0.005876336569,0.005189729548,0.004541829105,0.003932690801,0.003364004086,0.00282478607,0.002310433707,0.001823761794,0.001361415842,0.0009097815207,0.0004648450791,2.57E-05,-0.0004076560097,-0.0008305810556,-0.001242359877,-0.001641820648,-0.00202951139,-0.002410905387,-0.002786159807,-0.003156780313,-0.003520889345,-0.003867730144,-0.004195439354,-0.004501893088,-0.004787870421,-0.005067779597,-0.005344517932,-0.005606939342,-0.00585258277,-0.006092191205,-0.006319524501,-0.006535794032,-0.006729096955,-0.006847054458,-0.006874386627,-0.006819681628,-0.006683799339,-0.006465142341,-0.006171402677,-0.005799737123,-0.005361504245,-0.004906044563,-0.00444760728,-0.003980790582,-0.003505216546,-0.003015923437,-0.002505870751,-0.00198360351,-0.001440248861,-0.0008341387531,-0.0001592331853,0.0006033459111,0.001445689709,0.00229585197,0.003148701486,0.003982885653,4.81E-03,0.005781733773,0.006909457914,0.008156482526,0.009498441104,0.01089788132,0.01230845632,0.0137319141,0.01511523354,0.01629884413,0.01723667245,0.01785233332,0.01814139565,0.01829492893,0.01830976576,0.01817038825,0.01781664491,0.01691598278,0.01535176699,0.01336521874,0.01097129338,0.007663700055,0.003488087281,-0.00123090092,-0.006197389702,-0.0109309879,-0.01499787489,-0.01831735311,-0.02051872136,-0.02037636661,-0.01753311504,-0.0121416406,-0.004285102016,0.005993722252,0.01844876184,0.03271261104,0.04839096575,0.06496339721,0.08191075886,0.09898887269,0.1156934008,0.1308554344,0.1439358126,0.1548013305,0.1632269636,0.1688429571,0.1714746446,0.1713226513,0.1684008045,0.1621209812,0.1525711024,0.140281629,0.1256791836,0.1092301161,0.09155972367,0.07289664558,0.05387875105,0.03642668406,0.02115969755,0.008061556139,-0.002846156538,-0.01187911486,-0.01924025119,-0.02488791246,-0.02902728654,-0.03232747465,-0.0350279822,-0.03723941294,-0.03902890482,-0.04022714264,-4.09E-02,-0.04099595367,-0.0407078214,-0.04031391297,-0.03992027217,-0.03954347234,-0.03920182847,-0.03884872433,-0.03847565562,-0.03809955606,-0.03772052001,-0.03731959083,-0.03689313538,-0.03645035552,-0.03599353624,-0.03551813563,-0.03502975464,-0.03452496914,-0.0340127395,-0.03353459207,-0.03310025683,-0.0327096883,-0.03235937939,-0.0320270375,-0.03170537433,-0.0313928829,-0.0310861612,-0.03079110379,-0.03050794751,-0.03021348576,-0.02990449575,-0.02961494639,-0.02933541947,-0.02907194164,-0.02880095189,-0.02840578994,-0.02785587703,-0.02717221168,-0.02636145468,-0.02543211366,-0.02440603742,-0.02328138208,-0.02208603244,-0.02092159554,-0.01982023695,-0.01878425242,-0.01781634937,-0.01689684234,-0.01601987125,-0.01518691682,-0.01439557029,-0.0136401107,-0.01291639066,-0.01222763234,-0.01157056719,-0.01092934207,-0.0103021652,-0.009684388198,-0.009078524053,-0.008514291821,-0.007997706911,-0.007511027107,-0.007049750853,-0.00662596354,-0.006228056861,-0.005861091993,-0.005505075077,-0.00507316905,-0.004543108209,-0.003913306084,-0.003188489631,-0.002408659006,-0.001585522707,-0.0007239031331,0.0001722014875,0.001120774058,0.002121619595,0.00314713068,0.004188445054,0.005266383474,0.006364139321,0.007484041831,0.008596492363,0.009580275715,0.01040098099,0.01106236494,0.01156695854,0.01194472847,0.01220981636,0.01236312482,0.01241535057,0.01238924035,0.0122957929,0.01214683075,0.01194877659,0.01169388808,0.01138905683,0.0110366478,0.01064834411,0.01026316192,0.009893403341,0.009544220891,0.009216805078,0.00889500824,0.008577406181,0.008264886761,0.007960138984,0.007680602385,0.007431281857,0.007200830332,0.006988447331,0.006809341384,0.00665801605,0.006539761729,0.006442026612,0.006300939036,0.006101068452,0.005849337729,0.005550769522,0.005224459942,0.004882660595,0.004525838094,0.004165230274,0.00382809815,0.003523999629,0.003272016163,0.00307489563,0.002898276243,0.0027474826,0.002615289337,0.002519771758,0.002556838712,0.00274834922,0.003083710718,0.003553162368,0.004123165728,0.004773953745,0.005497187134,0.006276046555,0.007083719162,0.007903313644,0.008715871342,0.009508584834,0.01028206113,0.01102201332,0.01172434184,0.01236948506,0.01290189873,0.0133042956,0.01355148314,0.01363869875,0.01362918676,0.01352345558,0.01328492022,0.01289822472,0.01230578385,0.0114549438,0.01050974855,0.009451916451,0.007782834793,0.005485736234,0.002800558395,-7.74E-05,-0.002834552865,-0.005164963071,-0.007038779889,-0.00817687773,-0.007634797872,-0.00509559567,-0.0007104165531,0.005525328885,0.01385174067,0.02418857573,0.0362454228,0.04975181117,0.06443234505,0.07992829604,0.09589783069,0.111930384,0.1273991889,0.1418324676,0.1550037367,0.1665383652,0.175655024,0.1819612523,0.1854944885,0.1861237712,0.1831456293,0.1765396438,0.1667407273,0.1540860275,0.1389534736,0.1218954932,0.1030577768,0.0830495139,0.06368888682,0.04563265757,0.02898816426,0.013898331,0.0002311594905,-0.0120237732,-0.02282201021,-0.0321872708,-0.04014903346,-0.04674940353,-0.05215577503,-0.05643690378,-0.05945962807,-0.06133854272,-0.06210055985,-0.06194874392,-0.06160907515,-0.06132025118,-0.06108732677,-0.06094237374,-0.06080374969,-0.06063640271,-0.06048380214,-0.06031841356,-0.05997006418,-0.05939703146,-0.05863823424,-0.05770635788,-0.05660894025,-0.0553814215,-0.05401992568,-0.052570937,-0.05120971104,-0.04998975111,-0.04891096825,-0.04797506933,-0.04714580009,-0.04640885279,-0.0457670291,-0.04521093779,-0.04471586941,-0.04427106739,-0.04386992106,-0.04350713688,-0.04318517176,-0.04289979778,-0.04264589646,-0.04241716847,-0.04220090094,-0.041990162,-0.04178223606,-0.04157275421,-0.04135590572,-0.0411284252,-0.04088567128,-0.04062525397,-0.04035212214,-0.04006487203,-0.03975582166,-0.03942069768,-0.03905982196,-0.03866725078,-0.03824000603,-0.03777004356,-0.03723360871,-0.03662120755,-0.03593335451,-0.03516715353,-0.03431591332,-0.03337872138,-0.03235647817,-0.03124991323,-0.03006985682,-0.02882230277,-0.02748303906,-0.02605487492,-0.02459132201,-0.02308728366,-2.16E-02,-0.01998262891,-0.0182078093,-0.01620177075,-0.01399787115,-0.01161363729,-0.009077336916,-0.006426647763,-0.003666364958,-0.0008398427504,0.001922569445,0.00457509386,0.007091592932,0.009461454468,0.01173226086,0.01389935773,0.0159621374,0.01790022083,0.01962179586,0.02110380651,0.02235137112,0.02337084649,0.02419475268,0.02483855002,0.02530735733,0.02561270641,0.02576804116,0.02578360825,0.02568063019,0.02546887456,0.02513407827,0.02468882796,0.02413860154,0.02350463777,0.02286085609,0.02223319223,0.02161450253,0.02100958472,0.02043102813,0.01987455304,0.01934847659,0.01884239248,0.01829030202,0.01767578156,0.01702142864,0.0163323889,0.01559784368,0.01483427802,0.01403547322,0.01322782402,0.01252461939,0.01195632164,0.01152075368,0.01121349316,0.010996424,0.01085470967,0.01078609828,0.01078151049,1.08E-02,0.01093617338,0.01106407105,0.01120999744,0.01140124809,0.01162569261,0.01188297362,0.01214821676,0.01231641056,0.01235591415,0.01228344796,0.01210121919,0.01179788661,0.01138516183,0.01088591288,0.01031820601,0.009738677683,0.009191207453,0.008573375145,0.007917067951,0.007515283233,0.00736410509,0.007548236646,0.007968476722,0.007919121817,0.007247955342,0.006181655701,0.004824748338,0.003151374338,0.001340099792,-0.0003455786179,-0.00162399611,-0.002039260513,-0.001213000788,0.0008855634881,0.004527417552,0.01083309956,0.02000679586,0.03173099968,0.0457412526,0.06170884118,0.07916032448,0.09771556879,0.116807946,0.1353135525,0.1525322377,0.1683611837,0.182330842,0.1931503646,0.2003853741,0.2041061059,0.2043171959,0.2010049918,0.1942937105,0.1845615201,0.1720838827,0.1568196477,0.1391207208,0.1195238258,0.09857588493,0.07701664256,0.05551389407,0.03442790255,0.0143079895,-0.003402785945,-0.01824295828,-0.03040976139,-0.03994197438,-0.04684626392,-0.05141374032,-0.05360967225,-0.05386199875,-0.05375908996,-0.05381307521,-0.05407073125,-0.05459605727,-0.05511263074,-0.05555336284,-0.05599324845,-0.05641846877,-0.05671611818,-0.05685994396,-0.05687841306,-0.05678071575,-0.0565712726,-0.05627409614,-0.055883956,-0.05543216308,-0.05504217314,-0.05474885771,-0.05455414397,-0.05445541562,-0.05441046183,-0.05440607543,-0.0544396489,-0.0545054716,-0.05461048254,-0.05475146225,-0.05490494072,-0.05506262899,-0.05524113782,-0.05542586868,-0.0556197531,-0.05579741146,-0.05585632447,-0.05576885602,-0.05552938866,-0.05514155019,-0.05465343878,-0.05407621527,-0.05341499697,-0.05267063927,-0.05180911107,-0.05082654291,-0.04975394576,-0.04860108797,-0.04734878598,-0.04601761284,-0.04460069007,-0.04313268906,-0.04175751644,-0.04051244395,-0.03940723212,-0.03843495018,-0.03751773677,-0.03663863165,-0.03578886401,-0.034968666,-0.03424201659,-0.03361851757,-0.03304141606,-0.0324953354,-0.03202489542,-0.03159524308,-0.03121736405,-0.03082897824,-0.03016320792,-0.02914825492,-0.0277902675,-0.0260999655,-0.02416478842,-0.02201984899,-0.01967358613,-0.01714813562,-0.01446121646,-0.01163159992,-0.008706840919,-0.005707703648,-0.002604395302,0.0005735859015,0.003822998078,0.007094423896,0.01020572924,0.01310196978,0.01577588701,0.01822634196,0.02050780626,0.02263408237,0.02460534756,0.02642474427,0.02807667126,0.02956196915,0.03090316431,0.03210892667,0.03316755008,0.03409457186,0.03488832404,0.03557400493,0.03624843897,0.03693884975,0.03765308904,0.03838981702,0.03910293625,0.03978347715,0.04043447434,0.04105693255,0.04168000331,0.04231373747,0.04291039188,0.04346876204,0.04407609236,0.04471753079,0.04540283726,0.04608473834,0.04651175809,0.04661243073,0.04647748489,0.0461158443,0.04543829705,0.04449897413,0.04326734168,0.04184710788,0.04073232293,0.04005548102,0.03974287511,0.03976881421,0.04009051111,0.0406278815,0.0413449719,0.04214617456,0.04273301913,0.04296639405,0.04296196802,0.04267667546,0.04169608306,0.03999452652,0.03777178498,0.03519340581,0.03245328628,0.02979011642,0.02741293516,0.02557863745,0.0247717767,0.02532627197,0.0271415206,0.03042901107,0.03619999478,0.04465787443,0.05549773603,0.06851859044,0.08359375356,0.1004000247,0.1184554028,0.1372989898,0.1564515546,0.1753396418,0.1936142581,0.210681435,0.2252582346,0.2366945463,0.2448288491,0.2493878493,0.2495820474,0.2453217933,0.2369941302,0.224912941,0.2094187522,0.1910548846,0.1700759627,0.1471248071,0.1238356501,0.1009378733,0.07865989607,0.05732532991,0.0372569741,0.01869332613,0.001659712991,-0.01371944101,-0.02699116947,-0.0380759223,-0.04714811922,-0.05431982956,-0.05970303736,-0.06351947013,-0.065798246,-0.06680605569,-0.06740096646,-0.0678775689,-0.06830516789,-0.06873914528,-0.06901733267,-0.06912713654,-0.06911504597,-0.0690068622,-0.06886334563,-0.06870907954,-0.06854407186,-0.06837503002,-0.06821204286,-0.06805362683,-0.06790654134,-0.06776414906,-0.0675819471,-0.06734865125,-0.06707803471,-0.06677280398,-0.06642697629,-0.06605052045,-0.06563735864,-0.06520329557,-0.06481977816,-0.06450407795,-0.06425824615,-0.06407703268,-0.0639213755,-0.06378054518,-0.06364917018,-0.0635243767,-0.06342979145,-0.06336708936,-0.06330616395,-0.06323823403,-0.06318841645,-0.06313902585,-0.06309236722,-0.06301635783,-0.06277685059,-0.06233505836,-0.0617022817,-0.0608807673,-0.05988734584,-0.05873887871,-0.05743364141,-0.0559901971,-0.054474241,-0.05290838503,-0.05129065114,-0.04962546232,-0.04791402156,-0.04615349382,-0.04435370411,-0.04250967973,-0.04058266256,-0.03856688306,-0.03646425932,-0.03428254181,-0.03205313046,-0.02978677394,-0.02749112426,-0.02517108424,-0.02280968167,-0.02040797258,-0.01799302173,-0.01557449568,-0.0131340563,-0.0106884301,-0.008239401297,-0.005815361454,-0.003526358761,-0.001407118245,0.0005532264606,0.002352732175,0.003989367969,0.005474034279,0.006800551289,0.007985188509,0.009105740947,0.01018477465,0.01120473454,0.01216434535,0.01307404847,0.01392091992,0.01471444841,0.01543301775,0.01597363168,0.01631092147,0.01644955528,0.01639693435,0.01619264646,0.01585342953,0.0153866575,0.01480318135,0.01410708557,0.01330790608,0.01242706261,0.01147675486,0.01045466066,0.009377121579,0.008247109118,0.007087649422,0.005971728673,0.004921951945,0.003957257028,0.003079680816,0.00224062123,0.00143994077,0.000673373461,-4.46E-05,-0.000626525054,-0.001051169771,-0.001347275761,-0.001523100363,-0.001570305113,-0.001511753643,-0.001343738654,-0.001100718816,-0.0009194465644,-0.0008401540788,-0.000860397864,-0.0009794969898,-0.001166797208,-0.001408728365,-0.001706958404,-0.002051636116,-0.002417928076,-0.002795750404,-0.003174102909,-0.003548636194,-0.003932936049,-0.004322348067,-0.004716324295,-0.005104382709,-0.005444100123,-0.005723345223,-0.005943678618,-0.006105913724,-0.006219788672,-0.00629029885,-0.006317532698,-0.006305556239,-0.006264295081,-0.00619802147,-0.006110591469,-0.006004059805,-0.005874957257,-0.005725205234,-0.00555605909,-0.005371127469,-0.00518240787,-0.004994109992,-0.004805885681,-0.004618552811,-0.00443263058,-0.004247636212,-0.004064770639,-0.003883096336,-0.003695975346,-0.003501889267,-0.003302958785,-0.003099870101,-0.002892358565,-0.002682159924,-0.002469034663,-0.002255465218,-0.002051068465,-0.001858676786,-0.001678372419,-0.001510120457,-0.001351298655,-0.0012010193,-0.001059338469,-0.0009257956488,-0.0007999218341,-0.0006813526437,-0.0005688733638,-0.0004621153635,-0.0003623481572,-0.0002689413423,-0.0001820963038,-0.0001005451226,-1.88E-05,6.45E-05,0.000149481514,0.0002357604437,0.0003211519317,0.0004049111706,0.0004867981824,0.0005664554814,0.0006443151182,0.0007201963202,0.0007926212723,0.0008610932277,0.0009268078601,0.0009889020094,0.00104740378,0.001100761892,0.001142713332,0.001171412881,0.001187248261,0.001190270987,0.001181375758,0.001161271738,0.001129850052,0.001087840134,0.001037791471,0.0009805808705,0.0009162225969,0.0008448921982,0.000766476814,0.0006808996501,0.0005884816747,0.0004891286716,0.0003818770498,0.0002666142323,0.0001434005161,1.25E-05,-0.0001252824365,-0.0002695936176,-0.0004200572371,-0.0005765591097,-0.0007398736384,-0.0009098934914,-0.001086315309,-0.001268696087,-0.001455828197,-0.001647114437,-0.001842579253,-0.002041757474,-0.00224412127,-0.002449640387,-0.002655806166,-0.002862647888,-0.003075494581,-0.003293826639,-0.003518373692,-0.00374678205,-0.003965577007,-0.004171171497,-0.004368438965,-0.004558111246,-0.004736676396,-0.004907440347,-0.005067865178,-0.005223755175,-0.005402283977,-0.005609780257,-0.005847192855,-0.006112228957,-0.006388694159,-0.006672309196,-0.006960628754,-0.007252723749,-0.007559819735,-0.007882956623,-0.008209490532,-0.008535683906,-0.00887152712,-0.009209412538,-0.009550445441,-0.009881062044,-0.01014479115,-0.01032541728,-0.0104268206,-0.01045004045,-0.01040429909,-0.01029658393,-0.01012641351,-0.009900795217,-0.009642458299,-0.009359556201,-0.009053588465,-0.008726660676,-0.008376688187,-0.008003753187,-0.007611165329,-0.007199427138,-0.006764805753,-0.006308149035,-0.005828530935,-0.005328491036,-0.004819302252,-0.004303291621,-0.003783525908,-0.003259615281,-0.002716638923,-0.002152238136,-0.001577251808,-0.0009949907199,-0.0003985806191,0.000204920059,0.0008164195597,0.001424069384,0.001979555864,0.002468847104,0.002894507349,0.003257169015,0.003565395825,0.003824751203,0.004034780606,0.004200709391,0.004338896544,0.004455360711,0.004551774082,0.004629872269,0.00468783784,0.004726146089,0.004746812023,0.004750898057,0.004738720844,0.004711415153,0.004669555607,0.00461452951,0.004549818267,0.004476760554,0.004396529199,0.004309830176,0.004214302306,0.004109939941,0.004001146437,0.003889136226,0.00376933399,0.003643971023,0.003513768732,0.003383107226,0.003270046346,0.003180823907,0.003109503278,0.003056887681,0.003033391091,0.003036674381,0.00306941168,0.003125052602,0.003166736479,0.00318454609,0.003191025265,0.00318802836,0.003166644456,0.00313538163,0.003088544332,0.003040955761,0.00306142072,0.003166787165,0.003356388425,0.003625337551,0.003941999945,0.004295651233,0.004681807596,0.005095354181,0.005544878,0.006028082132,0.006522561301,0.007020580404,0.007539191764,0.008065035426,0.008597978436,0.009114501799,0.009520982063,0.009789306417,0.009925814884,0.009930946076,0.009813820584,0.009584100369,0.009244953685,0.008806916526,0.008305089514,0.007756593414,0.007141445333,0.006467129649,0.005793419538,0.005120281759,0.004454530401,0.003777841444,0.002961108458,0.001966372677,0.0008805596822,-0.0002916527824,-0.001675169986,-0.003231594547,-0.004994646269,-0.00687164291,-0.00838438997,-0.009410999772,-0.01004180432,-0.01031209007,-0.01025535078,-0.009961607496,-0.00948174791,-0.008926822174,-0.008633863214,-0.008766145711,-0.009180564368,-0.00993215271,-0.01154198392,-0.01404396517,-0.01720693992,-0.0208319934,-0.02463750669,-0.02832788806,-0.0317134396,-0.03449539045,-0.03602253967,-0.03592705528,-0.03429117886,-0.0309236536,-0.02497178962,-0.01627055146,-0.005107499333,0.008325104939,0.02393631713,0.04142419536,0.06031221726,0.08015732139,0.1005187594,0.1208421546,0.1407897621,0.1597765677,0.1765285047,0.1904068699,0.2012279487,0.2087218194,0.2121887252,0.2115306923,0.2070993616,0.1991551032,0.1879119525,1.74E-01,0.1571617815,0.1384636941,0.119318911,0.1004064304,0.08192892774,0.06417226625,0.04737458628,0.0317332866,0.01730251154,0.004192842924,-0.007246017608,-0.01693477625,-0.025031143,-0.03160226931,-0.03661203514,-0.04021821687,-0.04243979698,-0.04351364132,-0.04425039628,-0.04492131451,-0.04558723997,-0.04629396629,-0.04687356774,-0.04731140669,-0.04764252666,-0.04789432505,-0.04815275466,-0.04844319208,-0.04877690876,-0.04915289691,-0.04952574687,-0.0498881382,-0.05023573988,-0.0505714941,-0.05094284234,-0.05135845163,-0.0517828548,-0.05220679455,-0.05265800816,-0.05311423834,-0.05358208639,-0.05402192227,-0.05426439794,-0.05426322381,-0.05402436764,-0.05355375658,-0.0528996283,-0.05208386471,-0.05111072237,-0.04999591451,-0.04876429916,-0.04743132262,-0.04601843732,-0.04453764429,-0.04298046133,-0.04136120432,-0.03968353251,-0.03796949849,-0.03629071915,-0.03466951163,-0.03312034295,-0.03164515635,-0.03020439024,-0.02879683352,-0.02741960173,-0.02608284882,-0.02485031876,-0.02373689086,-0.02272115145,-0.02179647085,-0.02096758395,-0.02021698039,-0.01954785464,-0.01893427093,-0.01827462252,-0.01753965767,-0.01672625636,-0.01583554056,-0.01490216303,-0.0139354987,-0.01293694267,-0.01190911241,-0.0108408286,-0.00973253865,-0.008601954877,-0.007455186449,-0.006279797493,-0.005086881528,-0.003876242125,-0.002666970164,-0.001534550358,-0.0005015032201,0.0004355259187,0.001276679752,0.002033898049,0.002714988482,0.00331835661,0.003851442245,0.004339850366,0.00479236159,0.005210248501,0.005595296976,0.005944301821,0.006256870115,0.006535482578,0.006780395795,0.006988654203,0.007160527047,0.007296212081,0.007397234695,0.00746897462,0.007513042321,0.007531174765,0.007523847045,0.00748596242,0.007417261996,0.007322458469,0.00720345829,0.007058509278,0.006890970518,0.006700938655,0.006493556719,0.006287865069,0.006089646726,0.005899443355,0.005717432322,0.005538479576,0.005361123379,0.005185649767,0.005011518852,0.004838769268,0.004667092535,0.004494172922,0.004319461463,0.004145593641,0.003971385754,0.003797598166,0.003621743535,0.003432374657,0.003226751165,0.003004664877,0.002767006998,0.002519908401,0.00226514035,0.00200371689,0.001736196585,0.001459051088,0.001172235379,0.0008800722245,0.0005841196414,0.0002819134783,-2.37E-05,-0.0003329894095,-0.0006412928453,-0.0009300576366,-0.001194022743,-0.00143266826,-0.001646317669,-0.00184158794,-0.002020333407,-0.002182877587,-0.002329812738,-0.002459084129,-0.002570801701,-0.002668776866,-0.00275416596,-0.00282388015,-0.002880205082,-0.002922416889,-0.002954653537,-0.002994419963,-0.003046313563,-0.003110728278,-0.003186864928,-0.00326698278,-0.003348855241,-0.003431769895,-0.003514987903,-3.60E-03,-0.003692094438,-0.003780486746,-0.003865396351,-0.003952050545,-0.004037369055,-0.004121837757,-0.004199605356,-0.004245687292,-0.004252917277,-0.004223871227,-0.004159068922,-0.004061041359,-0.003933137752,-0.003774970295,-0.003590468496,-0.003394053848,-0.003190541913,-0.002979199688,-0.00276079554,-0.00253541011,-0.002302113953,-0.002063249409,-0.001817339376,-0.001554578433,-0.001273534314,-0.0009733255204,-0.0006558765981,-0.0003317829352,-3.41E-06,0.0003269514681,0.0006593609625,0.001005276338,0.001366361699,0.001733359533,2.10E-03,0.002482998423,0.002866003632,0.003253423726,0.00363516326,0.003969679227,0.004245078679,0.00446331793,0.004625155123,0.004739191012,0.004810347315,0.004838494599,0.004827928422,0.004790598575,0.004731198687,0.004652552065,0.004556422172,0.004439880456,0.004304110802,0.004150639149,0.003981871011,0.00380477373,0.003622244909,0.003433659531,0.003240069825,0.003044544322,0.002847192594,0.002649540069,0.002450689432,0.002242067021,0.002021936245,0.001794091829,0.001559772246,0.001317788355,0.00107101686,0.0008188670785,0.0005656997192,0.0003288100351,0.0001130291089,-8.09E-05,-0.0002534272867,-0.000411436731,-0.0005566944352,-0.0006896486215,-0.0008106281416,-0.0009160948799,-0.001005752626,-0.001083922953,-0.001151828567,-0.001205969295,-0.001248958886,-0.001279876017,-0.001303447984,-0.001339939329,-0.001394657343,-0.001467777384,-0.00155834469,-0.001657841228,-0.001763587545,-0.001874877799,-0.001990576781,-0.002112956827,-0.002241734171,-0.00237066755,-0.002498104046,-0.002630605224,-0.002764939554,-0.002901349819,-0.003033396342,-0.003133360057,-0.003193015032,-0.003216829723,-0.003205082484,-0.003156441031,-0.003074791243,-0.002958575479,-0.002813703066,-0.002666460095,-0.002524444388,-0.002383934126,-0.002244669135,-0.0021056533,-0.001962933873,-0.0018209023,-0.001674075358,-0.001496436373,-0.001283393494,-0.001027399395,-0.0007322422955,-0.0004321384383,-0.0001309554632,0.0001650195758,0.000461081507,0.000810386414,0.00122405482,0.001673010376,0.002149742865,0.002672688616,0.003222318059,0.003806501832,0.004392194291,0.004837386775,0.005105166953,0.005193019862,0.00510795712,0.004913094373,0.004627041649,0.004256228944,0.003807238918,0.003254730276,0.002599071668,0.001884812648,0.001124754662,0.0002800475225,-0.0006236059852,-0.001593246179,-0.002581264891,-0.003384220884,-0.00394704546,-0.004275838013,-0.004378166071,-0.004317377755,-0.004120702555,-0.003789279898,-0.003342008647,-0.002808408464,-0.002202741956,-0.001570973524,-0.0009236231406,-0.0001931402931,0.0006031838844,0.001462166892,0.002340004568,0.003039020031,0.00349649597,0.003776489245,0.003877235401,0.003712342061,0.003314337419,0.002655915111,0.001809949892,0.001155551719,0.0007932534146,0.0006331965531,0.0006526132929,0.0008745001774,0.001226234905,0.001690566098,0.002161418765,0.002238179766,0.00177035599,0.0008838731176,-0.0004413769507,-0.002519808029,-0.005337166794,-0.008724059271,-0.01250292109,-0.01639224841,-0.02015185423,-0.02358194189,-0.02645758928,-0.02843107381,-0.02922344167,-0.02888390087,-0.02721328905,-0.02334672531,-0.01708346019,-0.008663299166,0.001778435872,0.0142273161,0.02845354905,0.04403450533,0.06059818118,0.07782147538,0.09522849004,0.1125107711,0.1291420168,0.1439596472,0.1563739035,0.1662502129,0.1733268737,0.1768800894,0.1767784464,0.1733531155,0.1668150754,0.157265949,0.145110924,0.1305456498,0.1141142892,0.09729261436,0.08071491566,0.06455714453,0.04908500919,0.03453966029,0.02110372044,0.008828216703,-0.002193887894,-0.01167175249,-0.01954023175,-0.0259690897,-0.03102049353,-0.03460412629,-0.0368696055,-0.03782759679,-0.03772043122,-0.03742721627,-0.03723225949,-0.03715603802,-0.03723273738,-0.0373178442,-0.03736915072,-0.03743019243,-0.03748267065,-0.03742178095,-0.0372217572,-0.03689007033,-0.03643305,-0.03588383079,-0.03525809083,-0.03455836463,-0.0337956738,-0.03298888376,-0.03214775754,-0.03128867722,-0.03041798381,-0.02951953051,-0.02860128957,-0.02766433724,-0.02672432166,-0.02584356944,-0.02504071294,-0.02431087189,-0.02365377682,-0.02306344662,-0.02253271064,-0.02206330186,-0.02164685304,-0.0212509727,-0.02086526237,-0.02049173737,-0.02012923995,-0.01977867352,-0.01944265521,-0.01911667017,-0.01880437393,-0.0185270262,-0.01828818142,-0.01809027621,-0.01792978553,-0.01778470654,-0.01765055808,-0.01752326247,-0.01740348588,-0.01731584,-0.01726456601,-0.01722979643,-0.01720639455,-0.01721086115,-0.01723133326,-0.01727022596,-0.01730607131,-0.01724701986,-0.01706684713,-0.01677452041,-0.01637211306,-0.01587025637,-1.53E-02,-0.01460442613,-0.01385385735,-0.01307817654,-0.01229463906,-0.01149980271,-0.01069743378,-0.009894337055,-0.009088451179,-0.008287497479,-0.007486042749,-0.006643624759,-0.00575248642,-0.004821638363,-0.003857099841,-0.002871479034,-0.001876239605,-0.0008724593055,0.0001278883589,0.00109299826,0.002012221908,0.002868738465,0.003660112721,0.004419510355,0.005143397255,0.005835226963,0.006480052498,0.006998386321,0.007369851076,0.007614225291,0.007736980555,0.007736163928,0.007628994161,0.007412813822,0.007112276597,0.006823893174,0.006576642269,0.006368502653,0.006199896869,0.006052140561,0.005916176883,0.005795916145,0.005684061014,0.005555860235,0.005404373054,0.005220151172,0.005003154041,0.004778220462,0.004545005996,0.00430691576,0.004055795305,0.003741416453,0.003351819638,0.002902592242,0.002398525572,0.001836861931,0.0012304902,0.000577561393,-0.0001031263128,-0.0007384122534,-0.001306653155,-0.001807627618,-0.002241462315,-0.002626841962,-0.002970446596,-0.003271626002,-0.003534156585,-0.003764010588,-0.003964549513,-0.004143444367,-0.004303239461,-0.004436007073,-0.004545707539,-0.004631040703,-0.004699963552,-0.00478639722,-0.004898969114,-0.00503921218,-0.005205220351,-0.005379324228,-0.005557091403,-0.00573633306,-0.005916303251,-0.006109000341,-0.006315656817,-0.00652341794,-0.006728505748,-0.006940798797,-0.007152422403,-0.007365124807,-0.007564950904,-0.007693404294,-0.007734262103,-0.007689397938,-0.007560544262,-0.007363742329,-0.007106273978,-0.006789140253,-0.006417617359,-0.006000909304,-0.005544170264,-0.005054721698,-0.004536246669,-0.003984136333,-0.003402790141,-0.002793422074,-0.002163403838,-0.001538206801,-0.0009258501501,-0.000328355643,0.0002536027264,0.0008280791424,0.001396363874,0.001957897756,0.002512157253,0.003054093228,0.003582465954,0.004101538497,0.004611854983,0.005108341865,0.005593248471,0.006064310379,0.006526334374,0.007003103366,0.007499944587,0.008016987974,0.008551909155,0.009090846722,0.009629580224,0.01016596916,0.01069845136,0.0112341213,0.0117731088,0.01230398774,0.0128234556,0.01334187977,0.0138528673,0.01435654803,0.01484099812,0.01525649213,0.01558797854,1.58E-02,0.01602057486,0.01611951668,0.01614580531,0.01609693161,0.01598256436,0.01584634763,0.01570119862,0.01553883083,1.54E-02,1.52E-02,0.01495189442,0.01472464625,0.01447300895,0.01414363951,0.01372501535,0.01321400413,0.0126162155,0.01196975856,0.01128369604,0.01056436715,0.009812501226,0.00899476774,0.008106713381,0.007179531451,0.006222119412,0.005210251305,0.004162935154,0.003076750583,0.001985411344,0.00103032899,0.0002517414549,-0.0003597359461,-0.0008070575069,-0.001115851983,-0.001304100701,-0.001369308128,-0.001329020979,-0.001239352182,-0.001119038918,-0.0009796799282,-0.0008253166244,-0.0006293313148,-0.0003921831906,-0.0001225875754,0.0001715040515,0.0004579795995,0.0007205349018,0.0009940957146,0.001271516347,0.001466687749,0.001584994034,0.001605592346,0.001563153117,0.001680833963,0.002012388153,0.002479649919,0.00306382021,0.003791767156,0.004602128694,0.005538579828,0.006505166333,0.007079481153,0.007169344399,0.006698010489,0.005709459085,0.004588554196,0.003386633759,0.002222418967,0.001048314101,-0.0007597384529,-0.003285331242,-0.006297683915,-0.009637892195,-0.01313842195,-0.01656068782,-0.01969174681,-0.02225973756,-0.02374538352,-0.02379958062,-0.02247919829,-0.01957417598,-0.01410399589,-0.005890200084,0.004715604142,0.01748253553,0.03227238778,0.04868185702,0.06633741696,0.08470155519,0.1026756554,0.1195808602,0.1353493952,0.149526027,0.1608153634,1.69E-01,0.1735207983,0.1749825932,0.1734101891,0.1689502096,0.1619203236,0.1525254145,0.1405671558,0.1262974511,0.1101776385,0.09266383553,0.07442874295,0.05605860738,0.03774396777,0.01997262399,0.004156331493,-0.009263194991,-0.02038044581,-0.02921890465,-0.03595690824,-0.04081674544,-0.04378641112,-0.04514018973,-0.04577559268,-0.04600611346,-0.04597310003,-0.04575292636,-0.04509227531,-0.04402057228,-0.04257916576,-0.04088310959,-0.03935787314,-0.03813251085,-0.03720646077,-0.03658172484,-0.03616430549,-0.03591597541,-0.03584315234,-0.03591945451,-0.03608116797,-0.03630126241,-0.03654505125,-0.03679916572,-0.03710429767,-0.03744451433,-0.03781859937,-0.03819223544,-0.03842723978,-0.03848392774,-0.03836617772,-0.03807627797,-0.03764727796,-0.03709478036,-0.03641896887,-0.03563174625,-0.03476005193,-0.03381607335,-0.03281319921,-0.03175793527,-0.03063836062,-0.0294613922,-0.028229644,-0.02695607395,-0.02568681371,-0.02443655961,-0.02320574239,-0.02199564044,-0.02079834442,-0.01961075793,-0.01843511411,-0.01726923489,-0.01610435546,-0.01493818224,-0.01376838766,-0.01259516391,-0.01142614669,-0.01026166329,-0.009102389943,-0.007946419734,-0.006780960542,-0.00560278182,-0.004417637852,-0.00322665343,-0.002024851182,-0.000815720794,0.0004009519984,0.00161884185,0.002810599535,0.003967617377,0.005096476381,0.006196724247,0.007261251243,0.008294134247,0.009289744716,0.01025625903,0.01123765147,0.01224328521,0.01327180819,0.01431822334,0.01535767019,0.01638132855,0.01738521776,0.01836483527,0.01932729628,0.02027110277,0.02117470595,0.02203224225,0.02286485895,0.02366097443,0.02442410958,0.02513173606,0.0256853624,0.02605848947,0.02625663799,0.0262839781,0.02616685692,0.02591923996,0.02554351882,0.02505108371,0.02446533834,0.02379783478,0.02306110534,0.02226216439,0.02139297885,0.02046075193,0.01947015551,0.01843319628,0.01738742737,0.01634682509,0.01531078689,0.0142829685,0.01326766898,0.01226446854,0.01127816561,0.01030645525,0.009326866255,0.008334818701,0.007340057231,0.006345826423,0.005348935899,0.00435663469,0.003368784046,0.002396313054,0.001481356569,0.0006369833277,-0.0001393166056,-0.0008470892699,-0.001489328606,-0.002069838216,-0.002588522218,-0.00304980513,-0.003471346476,-0.003860104461,-0.004208378166,-0.004518131021,-0.004806926165,-0.00507303924,-0.005321747329,-0.005545071729,-0.005691585862,-0.00574898536,-0.005734871036,-0.005654142275,-0.005500468139,-0.005287292794,-0.005012783564,-0.004697540755,-0.004424188021,-0.004217432148,-0.004072355677,-0.00398889093,-0.003956547781,-0.003966542505,-0.004021584087,-0.004112390509,-0.004203559898,-0.004284060789,-0.004353638877,-0.004411479996,-0.004464191821,-0.00451410596,-0.004559792671,-0.004602589501,-0.004647587139,-0.004696258047,-0.00474960912,-0.004807625146,-0.004867281937,-0.004928528636,-0.004990188029,-0.005053191088,-0.005124031731,-0.005203457136,-0.005292425453,-0.005389408306,-0.005485723105,-0.005579617959,-0.00566939027,-0.005755325053,-0.005847619111,-0.005948105112,-0.006048277829,-0.006146073154,-0.006249233533,-0.006352889554,-0.006457833312,-0.006554978857,-0.006605048473,-0.006596551358,-0.006535159057,-0.006421564395,-0.00625550019,-0.006042295325,-0.00578214798,-0.005482527418,-0.005173328269,-0.004865305697,-0.004549048051,-0.004226526054,-0.003916374294,-0.003615536344,-0.003328559894,-0.003045337292,-0.002705679332,-0.002293359827,-0.001832583579,-0.001326730449,-0.0007537836774,-0.0001284343585,0.0005565142154,0.001273682351,0.001895918071,0.002388916706,0.002768819297,0.003040932379,0.003222923623,0.003335603895,0.003373846675,0.003361594069,0.003384571075,0.003467220223,0.003627031875,0.00386358414,0.004119651266,0.004391656292,0.004673265158,0.004976995528,0.005392569256,0.005940033303,0.006584207744,0.00731434649,0.008142646037,0.009042133375,0.01001694762,0.01102580373,0.01190519341,0.01260742412,0.01313362288,0.01348539821,1.37E-02,0.01380483632,0.01379245746,0.01367624447,0.01346698019,0.01317659115,0.01280865328,0.01237457469,0.01190658948,0.01141665282,0.01090503095,0.01037867134,0.009827846964,0.009245843705,0.00870569981,0.00820600826,0.007598138587,0.006899873859,0.006083151869,0.00521874114,0.004711918357,0.004665259115,0.004957314823,0.005554965134,0.006507969775,0.007725368108,0.009179946338,0.01073288257,0.0118606868,0.0123656484,0.01241760435,0.01199136024,0.01065640184,0.008428961892,0.005562402398,0.002282245564,-0.001045311983,-0.004071049787,-0.006761771085,-0.008801191451,-0.009128911359,-0.007399171417,-0.003738336693,0.001846843059,0.009496506989,0.01911767454,0.03036678519,0.04299112658,0.05689968665,7.17E-02,0.08722512055,0.102896487,0.1177120269,0.1311284078,0.1429801279,0.1529645458,0.1605163139,0.1653585646,0.1675869822,0.1671435754,0.1634555471,0.156552807,0.1468796541,0.1347768661,0.1206023086,0.1048926109,0.08777761012,0.0698367514,0.05288298429,0.03751792407,0.02378938736,0.01176049556,0.001138669294,-0.008191076927,-0.01618656536,-0.02294041129,-0.02872375354,-0.0336508063,-0.03781406774,-0.04127102697,-0.04395240158,-0.04591513528,-0.04719706413,-0.04789787064,-0.04831176449,-0.04854612856,-0.04865045192,-0.04865392681,-0.04848346073,-0.04815085243,-0.04767269899,-0.04708540888,-0.04651465308,-0.04600009606,-0.04554333424,-0.04514674007,-0.04478548189,-0.04444996047,-0.0441429841,-0.04385796443,-0.04357677666,-0.04329203947,-0.04299680081,-4.27E-02,-0.04237238166,-0.04204674346,-0.04171200933,-0.04136087416,-0.04096461928,-0.04051660415,-0.04000904557,-0.03944409819,-0.03885159316,-0.03823417111,-0.03759644118,-0.0369328737,-0.03619597442,-0.03537532267,-3.45E-02,-0.03356015258,-0.03255706703,-0.03150186532,-0.03038636123,-0.02923809985,-0.0281769794,-0.02723280868,-0.02641203478,-0.02570716459,-0.02505091898,-0.02442724855,-0.02382762037,-0.02325040992,-0.02274665835,-0.02232292292,-0.02192841953,-0.02154903441,-0.02122578395,-0.02092806617,-0.02066318308,-0.02037609364,-0.01983308686,-0.01896927507,-0.01779662042,-0.01632244576,-0.01460159442,-0.01266400784,-0.01051672906,-0.008184538826,-0.005721277854,-0.003156003155,-0.0004979031291,0.002234741454,0.005012809001,0.007822274313,0.01064583507,0.01347401891,0.01633212237,0.01921792677,0.02208371304,0.02491438473,0.02774725903,0.03055423878,0.03334067243,0.03605641786,0.03849264218,0.04059153047,0.0423587308,0.04380033692,0.04497684602,0.04591459593,0.04661342611,0.04709199424,0.04738390994,0.04750404335,0.04749386559,0.04736235614,0.04704787927,0.04656606247,0.04591207533,0.04512625254,0.04439845469,0.04378108872,0.04323857514,0.04276504392,0.04235681989,0.04197880422,0.04166414923,0.04136287463,0.04084886045,0.04007934635,0.03898847709,0.03760556841,0.0362152589,0.03484745267,0.03355608121,0.03229368239,0.03060743173,0.02840412861,0.02591009114,0.02320801763,0.02014072872,0.01684570661,0.01355883156,0.01054783295,0.008332995483,0.007283762011,0.007381838867,0.008875979743,0.01278973016,0.01933850882,0.02824272768,0.03931029548,0.05236803191,0.06708387246,0.08305940137,0.09985489632,0.116839498,0.1334567569,0.1495253526,0.1645566386,0.1772709087,0.1871580726,0.1942198042,0.1983339088,0.1992050952,0.1967996952,0.1914182683,0.1832286305,0.1720485832,0.1581284996,0.141945479,0.12396579,0.1048281548,0.08514043335,0.06514220893,0.04537059647,0.02731294837,1.15E-02,-0.002220031049,-0.01369518819,-0.02326288783,-0.03110579119,-0.03721541279,-0.0417776321,-0.04531202761,-0.04802536085,-0.05009129608,-0.05159551466,-0.05234394126,-0.05241740873,-0.05184796855,-0.05080290898,-0.04989998652,-0.04933004377,-0.04908536436,-0.04917368448,-0.04948768476,-0.04997489173,-0.05065305797,-0.05147901672,-0.05230610265,-0.05308472353,-0.05379312685,-0.0544210751,-0.05501458158,-0.05557101772,-0.05608618672,-0.05654267461,-0.05686831226,-0.05704308241,-0.0570703588,-0.05695248232,-0.05670759597,-0.0563452695,-0.05586670048,-0.05527977367,-0.05460167429,-0.05384053479,-0.05300467377,-0.05209874678,-0.05111696475,-0.05006398509,-0.04894298377,-0.04776190465,-0.04654564113,-0.0453034874,-0.0440348435,-0.0427422022,-0.0414288163,-0.04009433403,-0.03874268016,-0.03737205295,-0.03596538622,-0.03451968105,-0.03303995928,-0.03152909701,-0.02999149734,-0.02843271432,-0.02685214204,-0.02525615463,-0.02366466944,-0.02208308674,-0.02052097978,-0.01897817542,-0.01742981287,-0.01587620536,-0.01431462667,-0.0127530761,-0.01124141042,-0.009792369352,-0.008385720631,-0.007017942994,-0.005703501731,-0.004428762573,-0.003203688969,-0.002004379914,-0.0007203598244,0.0006741479635,0.002184462945,0.003801401516,0.00545662088,0.007133185905,0.008820887878,0.01051734718,0.01227544071,0.01410141101,0.01594159776,0.01778055271,0.01966049027,0.02154890638,0.02345176346,0.02531115369,0.02688419532,0.02810204662,0.02897961024,0.02952243802,0.02977752729,0.02977548726,0.029515726,0.02902685139,0.02839300395,0.02764603922,0.02680030942,0.02586638313,0.02482791848,0.02368985903,0.02246480962,0.02116358491,0.01980915816,0.01841600528,0.01697512629,0.01549607779,0.01402367862,0.01256204064,0.01112429613,0.009701683862,0.008204920568,0.006615005049,0.004980765586,0.003314565005,0.001582817266,-0.0001828093363,-0.001990713021,-0.00378659384,-0.005338971448,-0.006583127479,-0.007533681186,-0.008197138761,-0.00862128634,-0.008836324376,-0.008843578597,-0.00867067594,-0.008393992028,-0.008044205962,-0.007636081738,-0.007181534007,-0.006670787116,-0.006111134476,-0.005513848066,-0.004891113671,-0.004266988493,-0.003654751022,-0.003058895182,-0.002486292395,-0.001953462195,-0.001468426267,-0.001015772924,-0.0006026039585,-0.0002521378201,4.67E-05,0.0002061457727,0.0002469707072,0.0004132914064,0.0007016023813,0.00118161848,0.001770844659,0.001890801931,0.001420559392,0.0005247208578,-0.0007098475893,-0.00223972847,-0.0039155092,-0.005560200632,-0.00697374181,-0.007787471606,-0.007722898428,-0.006861844,-0.005012050004,-0.00125679895,0.004599355645,0.01227801036,0.0216206921,0.03255687026,0.04480383317,0.05804436009,0.07188176131,0.08560028921,0.09868941636,0.1110706415,0.1223556169,0.1314308565,0.1379198835,0.1418431267,0.1431866629,0.1419924653,0.1383400197,0.132490322,0.1246122807,0.1145745284,0.102596719,0.08906389469,0.07435775637,0.05904228388,0.04361336604,0.02820130334,0.01321774195,-7.74E-05,-0.01129244787,-0.02057505749,-0.02794878393,-0.03345847635,-0.03731570347,-0.03949150995,-0.04028338996,-0.04079228617,-0.04137440656,-0.04206128805,-0.04289888515,-0.043702682,-0.04442733471,-0.04512698907,-0.04579148884,-0.04633087494,-0.04672483678,-0.04700159804,-0.04716982249,-0.04722600238,-0.04719201185,-0.04706360359,-0.04687171054,-0.04674054428,-0.04670570691,-0.04676414177,-0.04691370673,-0.04712350035,-0.04737947131,-0.04768140295,-0.04801890567,-0.04836999737,-0.0487244157,-0.04906834026,-0.04939584255,-0.0497205412,-0.0500355449,-0.05033874231,-0.0506166705,-0.05081862793,-0.05092863503,-0.05094981409,-0.05088125483,-0.05072556075,-0.0504872458,-0.05016452923,-0.04976309219,-0.04930820593,-0.04880795529,-0.04825600019,-0.04765280835,-0.04700672003,-0.04631448969,-0.04557840472,-0.04479135434,-0.04391586677,-0.04294132683,-0.04188035166,-0.04073436757,-0.03949152053,-0.03815944021,-0.0367358704,-0.03523505839,-0.03372261259,-0.03221800253,-0.03070562612,-0.02918504472,-0.02766765052,-0.02614229571,-0.02462125838,-0.0230848246,-0.02143392494,-0.01964739075,-0.0177210115,-0.01566567062,-0.01355010326,-0.01139183003,-0.009203493039,-0.006987947287,-0.004689031565,-0.002301061994,0.0001220597406,0.002562920679,0.005056402063,0.007567765663,0.01010207357,0.01260060464,1.48E-02,0.01670828376,0.01825395784,0.01946687772,0.02041119855,0.02111364632,0.02157626702,0.02181701901,0.02186536802,0.0217384131,0.02146462342,0.02105722009,0.02049441764,0.01979231321,0.01895876392,0.01802199921,0.01708030179,0.01616832627,0.01527577693,0.0144092243,0.0135876363,0.012805296,0.01207377097,0.01137848919,0.01062659344,0.009795062735,0.008915888291,0.007996422777,0.007021561645,0.006014718238,0.00496680825,0.003915265823,0.003020729834,0.002326084576,0.001829726116,0.001525061026,0.001353899108,0.001295249556,0.001345277051,0.001492452663,0.001735571521,0.002067688226,0.002449268693,0.002869188306,0.003370296693,0.003932783633,0.004558225798,0.005206359784,0.005704330129,0.006001607414,6.12E-03,0.006069764288,0.005844002988,0.005467904591,0.004948103824,0.004316029467,0.00369046267,0.00312036342,0.002550452318,0.001995437057,0.001591535463,0.001329613061,0.001232764788,0.00124587615,0.001018058311,0.0004519873161,-0.0002758999324,-0.001128872882,-0.002361053064,-0.003905441576,-0.005506895209,-0.006949524921,-0.007934294077,-0.008141771143,-0.007559487987,-0.005914191491,-0.002095865358,0.004159424408,0.01257290455,0.02298924517,0.03532828865,0.0492821242,0.06451381898,0.08058413074,0.09669638268,0.11229026,0.127225445,0.1410705915,0.1527274424,0.1617738699,0.168174612,0.1718502059,0.1727017737,0.1707228202,0.1662032142,0.1592654474,0.1495327975,0.1371778746,0.1226977174,0.106528141,0.08920998332,0.07133539265,0.05312863214,0.03513977206,0.01900339934,0.005236962323,-0.00626944378,-0.01552732262,-0.02269883582,-0.02801982182,-0.0314558404,-0.0333049923,-0.03462544403,-0.03577064426,-0.03681244499,-0.03781336413,-0.03857250984,-0.03907440931,-0.03937642754,-0.03951473871,-0.0395666642,-0.03956514641,-0.03954087852,-0.03950727163,-0.03943147003,-0.03932519204,-0.03918923425,-0.03904868251,-0.03900645383,-0.03909006403,-0.03929801701,-0.03962557698,-0.04003574691,-0.04051424505,-0.04105668865,-0.04165436681,-0.04230499368,-0.04300183531,-0.0437215988,-0.04445477417,-0.04521704411,-0.04599411048,-0.04678407731,-0.04756262528,-0.04823865165,-0.04878393031,-0.04920035296,-0.04948659256,-0.04965648562,-0.04971768065,-0.04966701776,-0.04951131314,-0.04927636902,-0.04897034896,-0.04859428472,-0.04814904292,-0.0476289956,-0.04703299528,-0.04636195088,-0.04561593645,-0.04479546245,-0.04390059303,-0.04293098889,-0.04188657887,-0.04076717587,-0.03957235385,-0.0383035525,-0.0369601233,-0.03553836136,-0.0340385467,-0.03245609102,-0.03079303206,-0.02906375281,-0.02726829984,-0.02541705957,-0.02350506893,-0.02149068207,-0.01937054312,-0.0171375402,-0.01480342975,-0.01243178006,-0.01003507704,-0.007628270095,-0.005208603558,-0.002695456862,-7.57E-05,0.00259291645,0.005293029004,0.008061888603,0.01086177777,0.01369948883,0.01651138068,0.01903542791,0.02119722868,0.02300627462,0.0244679746,0.02564456904,0.02656700169,0.02723570125,0.02767514619,0.02794322178,0.02806497828,0.02806657575,0.02796038108,0.02771992383,0.02735758096,0.02688022864,0.02631240696,0.02574188975,0.02519838526,0.02467372116,0.02417212937,0.02370296222,0.02325981052,0.02285118951,0.02246465726,0.02202851679,0.02152448311,0.02097219304,0.02037627527,0.01973221996,0.01905606615,0.01834024032,0.01760873656,0.01696358614,0.01643057765,0.01601690798,0.01571714614,0.01547215342,0.01526896199,0.01510485837,0.01497965743,0.01493694185,0.0149866733,0.01507242205,0.01518688785,0.01540962195,0.01571641537,0.01611691272,0.01655324725,0.01674463625,0.0166115344,0.01622430591,0.01559205782,0.01467204451,0.01351540105,0.01210414358,0.01052317195,0.009150630272,0.008095287131,0.007301600535,0.006759281936,0.006468932511,0.006379484285,0.006462991186,0.006650486537,0.006696564634,0.006485968543,0.006174887467,0.0057361432,0.004696875983,0.003044349968,0.001026604175,-0.001159417302,-0.003226728788,-0.004863903502,-0.00603120723,-0.006433218577,-0.005063910095,-0.001591013918,0.003827240165,0.01118517675,0.02071543992,0.03232955078,0.04566143454,0.06042551747,7.65E-02,0.09334263048,0.1107752601,0.1282540631,0.1447672613,0.1597409133,0.1729791171,0.1841270975,0.1924909794,0.1977340131,0.1999293131,0.199002387,0.1943174945,0.18592781,0.1743193573,0.1599074738,0.1432100273,0.1248613792,0.1050682732,0.0844801275,0.06499274629,0.04727073593,0.03136224376,0.01736970574,0.005147534859,-0.005388451085,-0.0142283417,-0.02149189736,-0.02749517045,-0.03240124719,-0.03634483795,-0.03943770496,-0.04170562966,-0.04327503015,-0.04418326694,-0.04457901965,-0.04493884546,-0.04542198367,-0.0460232394,-0.04676084732,-0.04759534217,-0.04849300936,-0.04948105029,-0.05051956037,-0.05142369699,-0.05214210233,-0.0526815939,-0.05304583681,-0.05328018713,-0.05340485086,-0.05341848413,-0.05333498531,-0.05318750228,-0.05298961738,-0.05275655175,-0.05249406572,-0.05218314098,-0.05182989148,-0.05143449413,-0.05101099448,-0.05061806005,-0.05027199208,-0.04996971978,-0.04970930772,-0.04947702406,-0.04926520172,-0.04907165057,-0.04888991565,-0.04870634355,-0.04851319712,-0.04830866642,-0.04808759045,-0.04784007972,-0.04756233362,-0.0472484784,-0.0468966234,-0.04651900531,-0.04611558563,-0.04567393309,-0.04518862293,-0.04466280054,-0.04408721592,-0.04346229446,-0.04277433539,-0.04197337719,-0.04104510028,-0.03998301817,-0.03878781164,-0.03748541069,-0.03607884142,-0.03457436456,-0.03296807034,-0.0312223568,-0.02933274518,-0.027304299,-0.02514652712,-0.02288911909,-0.02054497981,-0.01812461475,-0.01563629884,-0.01307173431,-0.0104370911,-0.007754581285,-0.005036899484,-0.002284169423,0.0004858847287,0.00326828929,0.006039017434,0.008724614653,0.01130007841,0.0137516324,0.01607451659,0.01829777936,0.02042036567,0.02244233574,0.0243537443,0.02610505529,0.02768401492,0.02909905223,0.0303542088,0.03145738869,0.03241879516,0.03324060583,0.03393453013,0.03453542227,0.03505690765,0.03550095617,0.03587217734,0.03617300094,0.03640475383,0.03657335039,0.03667944833,0.03671077733,0.03666695736,0.03655449856,0.03637805406,0.03614312422,0.03585649724,0.03552084448,0.03514366103,0.03474289829,0.03432596734,0.03389979618,0.0334672187,0.03302107381,0.03256456111,0.03209429905,0.031617026,0.03116303353,0.0307372242,0.03035108075,0.02999983572,0.02963600985,0.02925491246,0.02885085261,0.02843184707,0.02807117352,0.02778721296,0.02752991743,0.02728989298,0.02713119324,0.02703115316,0.02696497505,0.02688400963,0.02658924679,2.60E-02,0.02524530214,0.02433463235,0.02285318042,0.02080525188,0.01838734073,0.01579186031,0.01335587669,0.01135557695,0.009909889925,0.009254983181,0.009989945427,0.01240405111,0.01631891734,0.02183386379,0.02968437563,0.03991904496,0.05224235675,0.06636359058,0.08183474272,0.09824515214,0.1152061486,0.1322902853,0.1489698559,0.1647506646,0.1793860282,0.1924325067,0.2028825773,0.2102627473,0.2145792148,0.2156829739,0.2129055763,0.2062299247,0.1960964274,0.1828429973,0.1668136715,0.1485662549,0.1282662288,0.1065516713,0.08527435783,0.06514216439,0.04629470683,0.0289343296,0.01307123653,-0.001230737175,-0.01393551246,-0.0250306266,-0.03440424466,-0.04206614706,-0.04824050402,-0.0530179202,-0.05625528868,-0.05812200613,-0.05863799391,-0.05808325067,-0.05749405165,-0.05720211331,-0.05718153424,-0.05746315208,-0.05794871215,-0.05856572145,-0.05937015369,-0.06028622916,-0.06094398992,-0.06124145952,-0.06123416029,-0.06093398728,-0.06036203541,-0.0595749467,-0.05855864419,-0.05738554988,-0.05634413734,-0.05552005507,-0.05490378111,-0.05449471223,-0.05423990456,-0.05411053759,-0.05411198007,-0.05421958613,-0.05435507279,-0.0544904591,-0.05461496835,-0.05472133869,-0.054826438,-0.05492778912,-0.05502035732,-0.05509597621,-0.0551299967,-0.05511391005,-0.05504449936,-0.05492007829,-0.05474776168,-0.0545277933,-0.05425807312,-0.05393707342,-0.0535589336,-0.05312087415,-0.05262872681,-0.05208150497,-0.05146540881,-0.05078155994,-0.05002715356,-0.04920809372,-0.0483606393,-0.04749408043,-0.04659487158,-0.0456604841,-0.04469981322,-0.04370357049,-0.04267689027,-0.04160391567,-0.04041326108,-0.03908690386,-0.03762529509,-0.03603300974,-0.03434027662,-0.03255718738,-0.0306916325,-0.02874803658,-0.02671312166,-0.02459131373,-0.02239196887,-0.02012687219,-0.01781982529,-0.01548500165,-0.01313144996,-0.01077100811,-0.008410863513,-0.0060592691,-0.003746512242,-0.001482246228,0.0007633623326,0.002974733735,0.005153132248,0.007268166114,0.009192142393,0.01088846257,0.01236845139,0.01363486606,0.0147040974,0.01559279084,0.0163010143,0.01684706425,0.01729298259,0.01766168173,0.01794876693,0.01816021985,0.01830921064,0.0183944141,0.01842549018,0.01839599554,0.01825189701,0.01798196556,0.01760710987,0.01713481645,0.0165613744,0.01590346543,0.01516111459,0.01435842643,0.01358527902,0.01286987833,0.01221035415,0.01160850303,0.0110525866,0.0105356945,0.01006057645,0.00962087272,0.009190864555,0.008761887613,0.008338047494,0.007918052933,0.007495751416,0.007073178969,0.00664721243,0.006222674115,0.005828696154,0.005472628775,0.005144713066,0.004842807043,0.004571570502,0.004323786328,0.004102681191,0.003896663066,0.003655519676,0.003366188917,0.003028130662,0.002643818341,0.002234829499,0.001807794451,0.00136495106,0.0009089102235,0.0004323982817,-6.39E-05,-0.0005653544964,-0.001067274217,-0.001582212477,-0.00210162056,-0.002626482777,-0.003141186822,-0.003580981624,-0.003927233034,-0.004184329662,-0.004353410898,-0.004444995841,-0.004467044086,-0.004418955374,-0.004308715992,-0.004162327583,-0.00398908684,-0.003790696327,-0.003569525294,-0.003323077225,-0.003051407847,-0.002758275929,-0.002444239694,-0.002105109358,-0.00174186513,-0.001353295074,-0.0009422774189,-0.0005219109853,-9.48E-05,0.0003355643746,0.0007697551822,0.001225556824,0.001705881249,0.002198123733,0.002698494822,0.003215064566,0.00373963025,0.004273382021,0.00480251565,0.005270472332,0.005660918819,0.005976801421,0.006218977409,0.006397999032,0.006520477481,0.006585964534,0.006600548976,0.006582697141,0.006539283677,0.006472989183,0.006385935678,0.006274955537,0.006140904702,0.005986125219,0.005812584981,0.005624108715,0.005423111187,0.005208972633,0.004983337311,4.75E-03,4.52E-03,0.004277315079,0.004035287589,0.003779464073,0.00350793237,0.00322717894,0.002939124242,0.002639810128,0.002333522937,0.002019711744,0.001705503372,0.00142002968,0.001171815094,0.000958935386,0.0007810774522,0.0006340540877,0.0005144758033,0.000422846919,0.0003556618309,0.0003007053165,0.000253804847,0.0002147462649,0.0001827124094,0.0001586714379,0.0001430021581,0.0001340925162,0.0001322885394,1.42E-04,0.0001621131366,0.0001945508212,0.0002376616753,0.0002853033277,0.0003361973408,0.0003889583202,0.0004437591185,0.0005079910414,0.0005828785903,0.0006626110804,0.0007455899462,0.0008362885116,0.0009311483096,0.001030717663,0.001128714544,0.001198748373,0.001233164722,0.001234433465,0.001202970971,0.001141533523,0.001053482696,0.0009383036588,0.0007998860966,0.0006526651056,0.0005014046,0.0003454132994,0.0001853873746,2.11E-05,-0.0001484518192,-0.0003210295722,-0.0004980786101,-0.0006888247391,-0.0008946246606,-0.001116551723,-0.001352822338,-0.001593057872,-0.001835114718,-0.002076805743,-0.002318425129,-0.002571944586,-0.002839273907,-0.003111317778,-0.003385424631,-0.003667845978,-0.003952772977,-0.004241326926,-0.00452354634,-0.004758043627,-0.004933114287,-0.005050585363,-0.005111396673,-0.005124980783,-0.005096373776,-0.005025686269,-0.004917104958,-0.004781138368,-0.004622199745,-0.004443976798,-0.004248472186,-0.004032193931,-0.003796891555,-0.003543972356,-0.003276798589,-0.00300633503,-0.002736612839,-0.00246678961,-0.002197837096,-0.001931981704,-0.001668827987,-0.001410039398,-0.001154257597,-0.0008914647136,-0.000619507901,-0.0003415145415,-5.87E-05,0.0002285117678,0.0005171913427,0.0008081968667,0.001097687792,0.001371143036,0.001624812799,0.001855572196,0.00206402935,0.002261981747,0.002450503979,0.002631277843,0.00280216993,0.00294519774,0.003056522454,0.003144537086,0.00321155114,0.003253841684,0.003277622225,0.003279434966,0.003269233736,0.003289641548,0.003350664797,0.003458308869,0.003609313248,0.003770317216,0.003936007698,0.004101382989,0.004269361631,0.004480701119,0.004743190988,0.005030586743,0.005335919951,0.005677129148,0.006037092108,0.006422254632,0.00680314,0.007053365573,0.007139792277,0.007061238368,0.00682360617,0.006479894798,0.006046668587,0.005528689618,0.0049328372,0.004244001129,0.003464031831,0.002630408958,0.001753766327,0.0007978703706,-0.0002169302822,-0.001292529932,-0.002389867793,-0.003343454958,-0.004104825714,-0.004694053094,-0.005113224395,-5.37E-03,-0.005485431878,-0.005452635403,-0.005300454503,-0.005150185051,-0.005036918409,-0.004955801902,-0.004906350616,-0.004861731903,-0.004807529882,-0.004759997238,-0.004706040428,-0.004590985478,-0.004410376678,-0.004113654135,-0.003713769612,-0.003369457451,-0.003084753609,-0.002889413234,-0.002739570976,-0.002315667784,-0.001542738098,-0.0005600587779,0.0005959568197,0.002018132879,0.003615013247,0.005367698839,0.007123428168,0.008274802097,0.008609088875,0.008299471223,0.007333602014,0.00534240935,0.002364201556,-0.001349144533,-0.005556424383,-0.009903517751,-0.01404987563,-0.01781331437,-0.02087419146,-0.0224668422,-0.02219903125,-2.02E-02,-0.01643273101,-9.83E-03,-0.0003248682574,0.01177966011,0.02618367731,0.04238115052,0.05992884663,0.07840897355,0.09736250506,0.1162446149,0.1345244924,0.1519125343,0.1679166857,0.1814733112,0.1920598849,0.1996083034,0.2039274537,0.2043341229,0.2007904165,0.1936969655,0.1833740042,0.1701875742,0.1546811165,0.1370013794,0.1177597492,0.0987448907,0.08063412209,0.06355716233,0.04770195885,0.0330536742,0.01966167169,0.007581427893,-0.00317528469,-0.01256672479,-0.02060623192,-0.02744078154,-0.03313077291,-0.03757102997,-0.04087363835,-0.0430610212,-0.04432646524,-0.04534806358,-0.04634917405,-0.04736493857,-0.04842803455,-0.0494101409,-0.05028950464,-0.05109726553,-0.05183938816,-0.05251924149,-0.05313960715,-0.05370607132,-0.05422023814,-0.05467657761,-0.05507644266,-0.05541954992,-0.05570886856,-0.05596094422,-0.05618022514,-0.05635844747,-0.0564943318,-0.05659658848,-0.05666042313,-0.05668694326,-0.0566667577,-0.05655769974,-0.05634724219,-0.05604391333,-0.05564820066,-0.05515462941,-0.05456945405,-0.05389038357,-0.05312787658,-0.05232992708,-0.05151072985,-0.05065970864,-0.04977650601,-0.04886787776,-0.04792596844,-0.04695876931,-0.04595282624,-0.04484144957,-0.04361001775,-0.04225629341,-0.04078714393,-0.03924605191,-0.03764452581,-0.03599052117,-0.03428643574,-0.03249929571,-0.03062640764,-0.02870087932,-0.02673385503,-0.02470515198,-0.02263642284,-0.02052474735,-0.01840624551,-0.01642572746,-0.01462432627,-0.01300203221,-0.01155614213,-0.01024263589,-0.009045908057,-0.007964420055,-0.00698965232,-0.006116566963,-0.005338579529,-0.00463283182,-0.003991238186,-0.003433271092,-0.00294592567,-0.002530729884,-0.002163758528,-0.001747960981,-0.00125632014,-0.0006883355128,-4.65E-05,0.0006360863511,0.001348540061,0.002088917072,0.002851813715,0.003639173013,0.004447637425,0.00525795975,0.006063799858,0.006881778548,0.007700920995,0.008522559147,0.009326453981,0.01002938169,0.01060782873,0.01106448426,0.01140124934,0.01163902383,0.01178770347,0.01184802051,0.01182747528,0.01174174007,0.01159844782,0.01140626051,0.01116971863,0.01088274693,0.01055029007,0.01017415385,0.009762866104,0.009345350475,0.008930883708,0.008521800758,0.008119095945,0.007714286719,0.007306103076,0.006895491505,0.006483091601,0.006073799782,0.005669000495,0.005264330589,0.004859486865,0.004460590669,0.004065584533,0.003677039004,0.003290072571,0.00287934702,0.002439275975,0.001970702932,0.001476298368,0.0009693597384,0.0004547410756,-6.50E-05,-0.0005873590782,-0.001115776534,-0.00164891449,-0.002176822907,-0.00269572367,-0.003212208351,-0.003720117321,-0.004218748979,-0.004697691847,-0.005117191552,-0.005464811341,-0.005743104481,-0.005951507993,-0.006092126878,-0.006168542162,-0.006180137291,-0.006131338183,-0.006040902846,-0.005915577184,-0.005748455672,-0.005540686679,-0.005306038464,-0.00504245696,-0.004752012649,-0.004427631712,-0.004028103026,-0.003541367195,-0.002987609857,-0.002366734754,-0.001656276615,-0.0008680703082,2.73E-05,0.001004776214,0.001919803793,0.002754665115,0.003465142163,0.00408457774,0.004837175792,0.005750624289,0.006903625491,0.008266621666,0.009432222842,0.0103408636,0.01117827261,0.01204398842,0.01295994815,0.01408599882,0.01555158128,0.01756544794,0.02066867264,0.02514638393,0.03084508642,0.0378797668,0.04707178158,0.05850839677,0.07176687192,0.08656127021,0.1027218844,0.1197934554,0.1374158984,0.1550072898,0.1712607239,0.1854576538,0.1975663535,0.2071864417,0.2130730746,0.2149368745,0.212912536,0.2071931944,0.1983044156,0.186601661,0.172455239,0.1562234274,0.1381044257,0.1185055845,0.09785370251,0.07663919209,0.05565422183,0.03546740777,0.01626852783,-0.001550645114,-0.0168642555,-0.02936354083,-0.03927202307,-0.0466951913,-0.0517602778,-0.05479135304,-0.05577501631,-0.0551225188,-0.05431249338,-0.0538237342,-0.05366743634,-0.05389762409,-0.05431108582,-0.0548257008,-0.05551407452,-0.05631667662,-0.05693253606,-0.05727875436,-0.05739462116,-0.05728837918,-0.05698562757,-0.05652849032,-0.05590552469,-0.05516707275,-0.05451393007,-0.0540053342,-0.05363412725,-0.05339923893,-0.053262795,-0.05320387376,-0.05322580231,-0.053310511,-0.05340218188,-0.05348069671,-0.05353611278,-0.05356283546,-0.05357645391,-0.05357442211,-0.05355241639,-0.05350252912,-0.05339794276,-0.05322899913,-0.05299920236,-0.05270662329,-0.05234396181,-0.05191281865,-0.05141018799,-0.05084075734,-0.0502338832,-0.04959733537,-0.04891920825,-0.0481976848,-0.04744317627,-0.0466484207,-4.58E-02,-4.49E-02,-0.04394025418,-0.04281765762,-0.04157483188,-0.04021432215,-0.0387415969,-0.03716610238,-0.03549008453,-0.03372485132,-0.03190811976,-0.03005531604,-0.02815726126,-0.02621949794,-0.02426782143,-0.022300821,-0.02033311615,-0.01835400492,-0.01628138828,-0.01410090151,-0.01182775998,-0.009476122789,-0.007083096276,-0.004672616999,-0.002252764586,0.0001550456573,0.002513710668,0.004805058931,0.006991596736,0.009062174565,0.01106160864,0.0129731496,0.01480339343,0.01651550428,0.01794463324,0.01904899074,0.01983261436,0.0203057244,0.02053368811,0.02054162449,0.02033860555,0.01993944551,0.01934328028,0.01856071463,0.01763442158,0.01658140334,0.01537278631,0.01403466555,0.01257027221,0.01102402229,0.009563728161,0.008241426295,0.007051061924,0.005994986678,0.005052630063,0.004209198281,0.003471161969,0.002823479637,0.002205139452,0.001597455551,0.001002880269,0.0004204307282,-0.0001423180822,-0.0006801563343,-0.001197415517,-0.001688923206,-0.002130589269,-0.002516977304,-0.002845509408,-0.003118238847,-0.003353556852,-0.003554952671,-0.003724115512,-0.003860256127,-0.003945047554,-0.003974379966,-0.003965911437,-0.003922274123,-0.003821912438,-0.00367350324,-0.003471703433,-0.003235306296,-0.003054788087,-2.95E-03,-2.92E-03,-0.002949567631,-0.0030241493,-0.003127616383,-0.0032645084,-0.003417206838,-0.00352655937,-0.00357706119,-0.003543823948,-0.003428279771,-0.003299540836,-0.003157944098,-0.003013402643,-0.002845119844,-0.002517112218,-0.00199699763,-0.001334867851,-0.0005438683025,0.0003972628903,0.001450934152,0.002628611862,0.003871106357,0.004932606432,0.005745782418,0.006309105458,0.006629755944,0.006797336361,0.006841200255,0.006759634634,0.006566831931,0.00626205462,0.005848287875,0.00540152419,0.00492982624,0.00431060601,0.00357157688,0.00268628137,0.001731479654,0.001103768312,0.0009013599319,0.001059699736,0.001543970076,0.002299598789,0.003254107135,0.004323327038,0.005420270873,0.006409590419,0.007166010561,0.007734058024,0.008018320704,0.007535310594,0.00617808573,0.00411567363,0.001436502662,-0.001913041818,-0.005800869052,-0.009893988559,-0.01395311724,-0.01784463342,-0.02123176682,-0.0240197675,-0.02582921871,-0.02539689918,-0.0222651635,-0.01667032754,-0.008567998822,0.002616956332,0.01683316129,0.03358016666,0.05245418126,0.07315579574,0.09510815918,0.1177958732,0.1405080399,0.1618955722,0.1811116913,0.1979273166,0.2118125808,0.2212745897,0.2259582181,0.2260384185,0.2217480527,0.2137130756,0.2023975529,0.1881462897,0.1714264285,0.1528799094,0.1330409945,0.1122799336,0.09106842778,0.07018043035,0.05012388482,0.03100069336,0.01313371255,-0.002540387855,-0.01575102281,-0.02667118662,-0.0353655572,-0.04188294659,-0.04645770631,-0.04909055985,-0.05010440988,-0.05062029563,-0.05101196037,-0.05135811206,-0.0517214914,-0.05187476443,-0.05179581269,-0.05154214487,-0.05114744875,-0.05069992507,-0.05023420531,-0.04975031488,-0.04925774708,-0.04876892411,-0.04828264918,-0.04780898411,-0.0473408477,-0.04682181891,-0.04623846995,-0.04561343432,-0.04495180463,-0.0442403043,-0.04349413615,-0.0427075727,-0.04190577947,-0.04119886953,-0.04061652153,-0.04015256598,-0.03980238424,-0.03953694002,-0.03934080205,-0.03921054872,-0.03913363777,-0.03908499864,-0.03905129377,-0.03902146967,-0.03898698814,-0.03894741493,-0.03889437548,-0.03882316996,-0.03872269983,-0.03856658482,-0.03834493669,-0.03804315149,-0.03765798404,-0.037213278,-0.03670464665,-0.03613591204,-0.03549374359,-0.03471128453,-0.03377268846,-0.03268441715,-0.03145238861,-0.03009919779,-0.02863778691,-0.02707238562,-0.02541393389,-0.02368113747,-0.02188443908,-0.02003872506,-0.01815141008,-0.01621258854,-0.01423089103,-0.01220971386,-0.01016365665,-0.008142780227,-0.00616380143,-0.004226712466,-0.002333985779,-0.0004811046741,0.001334647291,0.003108152366,0.004842297146,0.006555338091,0.008250172949,0.009929207302,0.01158928767,0.01321043477,0.01478885898,0.01632070627,0.01780701488,0.0192717594,0.02071917567,0.02213191915,0.02350529085,0.02485205035,0.02616131486,0.02743580749,0.02865650944,0.02974276176,0.03067213703,0.03144871953,0.03207489821,0.03256975073,0.03294366986,0.03319759883,0.0333402318,0.03339227286,0.03336296262,0.03325960558,0.03308685264,0.03284023816,0.03252389185,0.03214099246,0.03169835293,0.03121545393,0.03069974931,0.03015322868,0.02957817668,0.02897345427,0.02833972189,0.02767923273,0.02699301318,0.02628011968,0.0255412633,0.02477856121,0.02399348931,0.02318647072,0.02235916587,0.02151382619,0.02065242256,0.01977850413,0.01889507414,0.01799911497,0.0170930819,0.01619026178,0.01529170671,0.01440150335,0.01351683296,0.01261067378,0.01167762399,0.01073006013,0.009771971772,0.008799466573,0.007822012382,0.006836519559,0.005857438919,0.004943127401,0.004108772573,0.00336047241,0.002695977834,0.002079256672,0.001503700877,0.0009708891289,0.0004822513339,6.61E-05,-0.0002680146882,-0.0005622592366,-0.0008177176758,-0.0009570037353,-0.0009931784423,-0.0009191449594,-0.0007765437948,-0.0007860327491,-0.001011897412,-0.001368144147,-0.001848992431,-0.002550774368,-0.003425621021,-0.004508984481,-0.00570335175,-0.006526637606,-0.006855129081,-0.00675719537,-6.26E-03,-0.005452315506,-0.004403316695,-0.003158443448,-0.00180928025,-0.0006048995619,0.0003292533281,0.001062152873,0.0015425476,0.00143648065,0.0007049190005,-0.0005122668106,-0.002102618815,-0.003968018458,-0.005952443889,-0.007821618167,-0.009381350713,-0.01045267233,-0.01077439643,-0.01033556836,-0.008882267859,-0.005452642352,0.0002437429364,0.007995631989,0.01775222603,0.02973368486,0.0438094827,0.05952937369,0.07654980611,0.09468755514,0.1134784497,0.132542015,0.151298008,0.1685224017,0.1835339216,0.1961744713,0.2060774682,0.2122207718,0.2143794356,0.2127844961,0.2076391441,0.1992832642,0.1881179544,0.1743789386,0.1585337028,0.1415685025,0.1240115171,0.1061736187,0.08838075717,0.07092860808,0.05413548373,0.03804708411,0.02292098627,0.009652951872,-0.001502838879,-0.01073426106,-0.0180943445,-0.02356853465,-0.0273584599,-0.02945866997,-0.03016634095,-0.0305536681,-0.03096966494,-0.03145984643,-0.03207123565,-0.03260361967,-0.03301724004,-0.03336131244,-0.03363779323,-0.03382281751,-0.03391279746,-0.03391739452,-0.0338403684,-0.03368219106,-0.0334491855,-0.03314174725,-0.03276769182,-0.03235744,-0.0319207269,-0.03145094075,-0.03094855264,-0.03042062072,-0.02986270787,-0.02927958201,-0.02866253585,-0.02796686627,-0.02718200591,-0.02631131535,-0.0253585921,-0.02434056086,-0.02326538067,-0.02213582799,-0.02095798927,-0.01973913914,-0.01848457421,-0.0172053479,-0.01590608216,-0.01457932801,-0.01323175134,-0.01186164448,-0.01048053358,-0.009133980872,-0.007833263164,-0.006586504263,-0.005391076487,-0.004210536795,-0.003040222823,-0.001875854908,-0.0007220797106,0.0003730094067,0.001398809519,0.002385797303,0.003340367782,0.004235750509,0.005090224402,0.005895625614,0.006685800055,0.007612719787,0.008716402062,0.009988185488,0.01142049127,0.01296935606,0.0146123836,0.01634388786,0.01814629947,0.01998888633,0.02185387817,0.023721114,0.0255778176,0.02742933397,0.02926180564,0.03106849539,0.03282916798,0.03448553975,0.03601686397,0.03741029175,0.038660902,0.03979101506,0.04079809008,4.17E-02,0.04243698191,0.0430113242,0.04339578272,0.04359006366,0.04359910269,0.0434500875,0.04315136743,0.04271104171,0.04213208278,0.04139538727,0.04050290382,0.03946753451,0.0383002755,0.03701638531,0.03563064251,0.03415050185,0.03259129588,0.03098237301,0.02933791039,0.02767805127,0.02601097378,0.02431720614,0.02260660698,0.02087932741,0.01915466159,0.0175095598,0.01596554209,0.01452316907,0.01318048057,0.01191129519,0.01070687561,0.009565670473,0.008483370343,0.007461677861,0.006497920051,0.005576521379,0.004692339456,0.003858817243,0.00306706075,0.002317997646,0.001595239802,0.0008315931639,7.93E-06,-0.0008732149434,-0.001810250104,-0.002788233353,-0.003799550028,-0.004840227979,-0.005904396969,-0.006982278665,-0.008065209469,-0.009158385455,-0.01025468119,-0.0113198969,-0.01234880639,-0.01333816201,-0.01429115481,-0.01525564517,-0.01624622532,-0.01720712941,-0.01813634596,-0.01912509244,-0.02015253365,-0.02124281508,-0.02233828142,-0.02312954905,-0.02354085765,-0.02363085122,-0.02342674492,-0.02296338505,-0.02230264753,-0.02148476126,-0.02058215302,-0.0197935495,-0.01922444035,-0.01878925919,-0.01852774448,-0.01880355212,-0.01965421968,-0.0208743398,-0.02234168993,-0.02400565674,-0.02566576165,-0.02721574601,-0.02840090652,-0.02850085194,-0.02719969971,-0.02456313421,-0.02047722793,-0.01449457511,-0.006553502361,0.00321386812,0.01467704799,0.02757909581,0.0416949382,0.0569565648,0.07307681641,0.08967806836,0.1062939747,0.1225497039,0.1379203119,0.1514010423,0.1623425634,0.17071112,0.1759827316,0.1770074237,0.1732063706,0.1640451914,0.1494762239,0.1288396364