0.004083661615,0.004143128261,0.004139976809,0.003857757399,0.003469863145,0.003042346031,0.002628102441,0.002224082765,0.001844643933,0.00151307342,0.001237271281,0.001007986699,0.0008246102094,0.0006893066955,0.0006003957423,0.0005622914457,0.0005643507891,0.0006078547119,0.0006911312968,0.0008069098128,0.0009521273077,0.00111185387,0.001282981046,0.001487095247,0.001717726749,0.001976494191,0.002247494446,0.002459492713,0.002592491298,0.002655099909,0.002649606772,0.002582012559,0.002464667809,0.002294421985,0.002086831387,0.001902510845,0.001759463941,0.001658508346,0.001599654472,0.001566956429,0.001555405248,0.001564149955,0.001591052272,0.001636434712,0.001697761994,0.001772634726,0.001856997696,0.001944014864,0.00203006296,0.002106717517,0.002171482521,0.002233470571,0.002288346227,0.00233961754,0.002377829998,0.002363243822,0.00228786064,0.002137526351,0.001919052021,0.001678440636,0.001429766404,0.001188326408,0.0009587071925,0.000709928509,0.0004486009797,0.0001779745916,-8.25E-05,-0.0002549541074,-0.0003174154461,-0.0002721858652,-0.0001213067192,0.0001143846593,0.0004251746198,0.0008103995872,0.001262960777,0.001767868229,0.002317835748,0.002905620847,0.003526589081,0.004185861448,0.00487872233,0.005598925933,0.006338507899,0.00707798885,0.007806688228,0.0085290827,0.009239345634,0.00991066227,0.01054285487,0.01112724697,0.01167248876,0.0122459791,0.01286329316,0.01349487649,0.01413340437,0.01479669291,0.01546224425,0.01614106523,0.01679296401,0.01726342233,0.0175103689,0.0175363203,0.01734774757,0.0169990904,0.01651102256,0.015888368,0.01514328845,0.01428081658,0.01331003112,0.01226367457,0.01115381449,0.00995363934,0.008681832345,0.007339801896,0.005961355022,0.00467858089,0.003531472599,0.002513303724,0.001625646936,0.0008488205364,0.0001680095031,-0.0003944472979,-0.0008538590701,-0.001293470255,-0.00173502756,-0.002180474887,-0.002627906815,-0.003042629777,-0.003416681758,-3.75E-03,-0.004056324126,-0.004333813162,-0.004594555952,-0.004798506247,-0.004947411875,-0.005129624394,-0.005337585316,-0.005573955483,-0.005795388158,-0.005810285192,-0.00556057553,-0.005060940841,-0.004303059786,-0.003313057254,-0.00213798384,-0.0008066064799,0.0005872741105,0.001874127885,0.002897712509,0.003475382348,0.003406590271,0.002573972579,0.0009095745193,-0.001553874524,-0.004686737734,-0.008353005342,-0.01228499071,-0.01609607194,-0.01938757512,-0.02179926846,-0.02298174899,-0.02273405399,-0.02085873567,-0.01702785746,-0.01114671238,-0.003226707057,0.006680011351,0.01840585089,0.03175042247,0.04646270107,0.06222407851,0.07868991229,0.09537383721,0.1116940936,0.1269747468,0.1404946786,0.1516473258,0.1599090692,0.1648963071,0.1663944043,0.1643444795,0.1589551444,0.1505594332,0.1394993548,0.1262762826,0.1114216026,0.09550976845,0.07927274091,0.06322502392,0.04769506735,0.03296279768,0.01923878643,0.006707380152,-0.004435179079,-0.01404747357,-0.02209717472,-0.02856112909,-0.0334968794,-0.03700987713,-0.03918067522,-0.04020661676,-0.04035380887,-0.03991442102,-0.03921646931,-0.03848610432,-0.03783723453,-0.0373136233,-0.03687110543,-0.03647894012,-0.03609275968,-0.03566319526,-0.03512615906,-0.03444477906,-0.033622742,-0.03267099097,-0.03161183699,-0.03046204162,-0.0292531495,-0.02800115764,-0.02670114777,-0.02535959023,-0.02400488062,-0.02264643118,-0.02126399209,-0.01987144295,-0.01846460653,-0.01706824966,-0.01578862447,-0.01465639219,-0.01366294571,-0.0128067051,-0.01207399174,-0.01145196732,-0.01094225224,-0.01053092477,-0.01016895131,-0.00983966144,-0.009542994277,-0.009275787728,-0.009040976637,-0.008840509435,-0.008667042445,-0.008522905051,-0.008428986225,-0.008386953763,-0.008400654815,-0.008464265042,-0.008545480367,-0.008638246609,-0.008735099884,-0.008837871116,-0.008988685474,-0.009194697653,-0.009426872274,-0.00967664835,-0.009962522628,-0.01026545993,-0.01058943415,-0.01090237657,-0.01107160417,-0.01105988874,-0.01087087437,-0.01050785311,-0.01000642387,-0.009382420308,-0.008637329382,-0.007782475379,-0.006838265247,-0.005815633165,-0.004731030032,-0.003592097666,-0.002385733956,-0.001121029831,0.000198181917,0.001555517788,0.002894067339,0.004196131838,0.005458921187,0.006681453443,0.007879872492,0.009058120846,0.01021486576,0.01135096281,0.01246371618,0.01355290548,0.01462686698,0.01568684394,0.01672130715,0.01773400416,0.01872195587,0.01969403413,0.02069375949,0.02173179774,0.02280443949,0.02390839261,0.02502974377,0.02616075458,0.02729913717,0.02843847738,0.02956749638,0.03067998466,0.0317676618,0.03282609222,0.0338606729,0.0348666733,0.03584000418,0.03677283294,0.03764113998,0.03843474141,0.03915885426,0.03980942221,0.04037005143,0.04084135848,0.04121204477,0.04148863676,0.04172516611,0.0419295272,0.04209575745,0.0422125871,0.04224135382,0.04216571508,0.04197577123,0.04166529276,0.04123034104,0.04067027512,0.03998962391,0.03919207626,0.03827757175,0.03725294048,0.03612490821,0.03490352512,0.03361094303,0.0322574074,0.03085029978,0.0293950117,0.02788825618,0.0263341101,0.02473914285,0.02310950753,0.02145680751,0.01978907996,0.01810290862,0.01640420049,0.01471676267,0.01304388758,0.01139335409,0.009761992204,0.008106287459,0.006417982417,0.004722678776,0.003027857225,0.001318256904,-0.0003890011096,-0.002096715256,-0.003776386922,-0.005311956062,-0.006670045433,-0.007854355267,-0.008866845779,-0.009733520911,-0.01046837289,-0.01107099488,-0.01155312891,-0.01194641847,-0.01226359472,-0.01251316558,-0.01270025848,-0.01281666089,-0.01286622828,-0.01285286782,-0.01278409144,-0.01268266247,-0.01255736611,-0.01240743887,-0.0122354788,-0.01204615964,-0.01183943316,-0.01161884089,-0.01138259652,-0.01111314953,-0.01080698502,-0.01047168472,-0.01010984011,-0.009719409391,-0.009306191448,-0.008869598419,-0.008418261409,-0.007985537477,-0.007581272227,-0.007205685442,-0.006858674272,-0.006531347391,-0.006220621576,-0.005926718796,-0.005647972084,-0.005382302341,-0.005128321484,-0.004882045044,-0.004642207372,-0.004412980587,-0.004192315627,-0.003980644867,-0.003773765675,-0.003554406188,-0.003317946768,-0.003063420699,-0.002791565818,-0.002510389625,-0.002222396745,-0.001928139305,-0.00162876379,-0.001322248912,-0.001008836835,-0.0006953576863,-0.0003831510567,-6.46E-05,0.0002572043224,0.000585060071,0.0009139553137,0.00120695813,0.001454715694,0.001683975558,0.001897470732,0.002066992819,0.002195509778,0.002263918627,0.00228206445,0.002345713904,0.002466358388,0.002617815292,0.002776191851,0.002884392869,0.002927591052,0.002909752834,0.002840249334,0.002750388227,0.002656039755,0.002578764614,0.002529684432,0.002501879431,0.002492313878,0.002504540167,0.002534130493,0.002555852841,0.002559361255,0.002561285013,0.00255861797,0.002511649783,0.002422562709,0.002289226552,0.00213017712,0.002028018091,0.00199768282,0.002030057942,0.002105538813,0.002166677896,0.002187836494,0.002125537363,0.001964036061,0.001746652725,0.001488612079,0.001174709679,0.0008314550135,0.000528930514,0.0002847003524,0.0001672165334,0.0001731851527,0.0001524440708,7.36E-05,-5.44E-05,-0.0002310076815,-0.0004140784301,-0.0005933034505,-0.0007813793901,-0.0009781158748,-0.001178102122,-0.001379363137,-0.001579673091,-0.001777777183,-0.001975605869,-0.002171062732,-0.00236451036,-0.002552458349,-0.002721149512,-0.002866888701,-0.002988427805,-0.003085664188,-0.003167547556,-0.003236258012,-0.003282958789,-0.003307782215,-0.003320423482,-0.003323453126,-0.003316549221,-0.003300131439,-0.003272714543,-0.00323445956,-0.003186937456,-0.003130852545,-0.003066731835,-0.002995248696,-0.002916239308,-0.00283015457,-0.002739716676,-0.002645515172,-0.002545656944,-0.002440321633,-0.002329400068,-0.002210776319,-0.002095504163,-0.001981317738,-0.001838849865,-0.001669674414,-0.001458805426,-0.001216694739,-0.001031096745,-0.0009126906411,-0.0008462747042,-0.0008084751419,-0.0007373791257,-0.0006122650517,-0.0004185718738,-0.0001576066013,0.0001396043498,0.0004595476596,0.0007916025994,0.001124244415,0.001456615131,0.001781665053,0.002098972126,0.002401745058,0.002665700739,0.002885524354,0.003058967708,0.003189001909,0.003295866988,0.003384719169,0.003457939495,0.003516947406,0.003545970677,0.003542049996,0.00353221213,0.003522332474,0.003469651314,0.003383428015,0.00329050773,0.003220195357,0.003244844962,0.003392899013,0.003643441089,0.003995481679,0.004481348324,0.005089939728,0.005796015601,0.006571348533,0.007338718341,0.00807456629,0.008783320509,0.009472270837,0.01015642999,0.01085030363,0.01156840007,0.01232424902,0.01314715853,0.01403960539,0.0150176258,0.01606850436,0.01712597981,0.01817908233,0.01920146867,0.02019939995,0.02128310578,0.02247477348,0.02371152728,0.02497941381,0.02631668867,0.02768048017,0.02908031611,0.03044285913,0.03147003419,0.03207785243,0.03226191071,0.03203021728,0.03147764472,0.03064527595,0.02954369381,0.02820090364,0.026658732,0.0249494928,0.02309086794,0.02111134683,0.01905715546,0.01695376771,0.01483341607,0.01271498946,0.01057297263,0.00843279229,0.00631124266,0.004259242362,0.002390596795,0.0007495394607,-0.0006024078388,-0.001655010217,-0.002497135229,-0.003155100196,-0.003637241209,-0.003970188637,-0.004154466934,-0.004214687663,-0.004212047104,-0.004169971957,-0.00409141968,-0.003991285427,-0.003844608835,-0.003657471098,-0.003535101007,-0.003474310056,-0.003497458688,-3.57E-03,-0.003439269775,-0.003055665776,-0.002460819985,-0.001670418266,-0.000747246607,0.0002492887865,0.001299179317,0.002329518491,0.003187857912,0.00374230223,0.003825584434,0.00324354715,0.001889869527,-0.0002929675959,-0.003258007122,-0.006856634384,-0.01093126304,-0.01516048461,-0.01907672148,-0.0221776416,-0.02400764467,-0.02413857045,-0.02231913768,-0.01834714638,-0.01187956263,-0.002885386533,0.008514890846,0.02212008587,0.03759959383,0.05460187436,0.0727466217,0.09160342813,0.1107285084,0.129577678,0.1475560581,0.1640051089,0.1782351168,0.1896716915,0.1978111252,0.2022881383,0.2029176848,0.1996632214,0.1927567905,0.1825594451,0.1694471012,0.1539780418,0.1367636473,0.1184726104,0.09993301594,0.08173634204,0.06425242793,0.04778081843,0.03254174608,0.01869840008,0.006413491808,-0.004224330036,-0.01326036472,-0.02071546733,-0.02664560217,-0.03114936371,-0.03429452975,-0.03624559706,-0.03722816158,-0.03748576762,-0.03726486887,-0.03675103135,-0.03609371292,-0.0353477351,-0.03442045634,-3.33E-02,-0.03206125806,-0.03065608322,-0.02934693848,-0.02819677171,-0.02720130765,-0.02636634715,-0.02564347688,-0.02501560815,-0.02449391906,-0.02406769185,-0.02370129382,-0.0233811093,-0.02309436362,-0.0228352818,-0.02261959535,-0.02244081815,-0.02229794946,-0.02217716652,-0.02202528934,-0.02182689382,-0.02158009987,-0.02128535865,-0.0209608951,-0.02061151894,-0.02023765569,-0.01984059053,-0.01941423062,-0.01895844842,-0.01848394905,-0.01799374474,-0.01747719848,-0.0169400885,-0.01638335746,-0.01581847053,-0.0152903112,-0.01481035354,-0.01438146942,-0.01400097007,-0.01364353159,-0.01330303478,-0.01297609339,-0.01266197015,-0.01237946077,-0.01213061807,-0.01189738716,-0.01167415972,-0.01147306912,-0.01128250561,-0.01110530659,-0.01092160521,-0.01064925294,-0.01026589173,-0.009770579625,-0.009166119948,-0.008483514971,-0.007732458815,-0.006915848685,-0.006037729037,-0.005090319469,-0.004075598208,-0.003011603485,-0.001904979224,-0.0007444860096,0.0004582448627,0.001705136816,0.002976614153,0.004195066599,0.005339311894,0.006404208691,0.007392054053,0.008339879091,0.009255645426,0.01014216965,0.01099932164,0.01179948952,0.01253821234,0.01324179189,0.0139165672,0.01453862614,0.01512323208,0.01566467754,0.01619162029,0.01683050662,0.01761505737,0.01853876235,0.0195959893,0.02075051688,0.02198426776,0.0232943317,0.02466661015,0.02607473196,0.02750529781,0.02893823675,0.03036471735,0.03180319192,0.03324343258,0.03467985807,0.03609324752,0.03741432189,0.03861862156,0.03971786975,0.04070769387,0.04156630947,0.04229899339,0.04289706475,0.04337506673,0.04382086758,0.04425729019,0.0446529258,0.0450021134,0.04532571207,0.0456023451,0.04584267193,0.04601020952,0.04594095156,0.0455921548,0.04497080177,0.04408549003,0.04298993232,0.0417080767,0.04024712588,0.03862376244,0.03685668708,0.03496138336,0.03296541706,0.03088400245,0.02870615234,0.02645014087,0.02412737062,0.02176593949,0.01944870811,0.01720845342,0.01504665361,0.01297309434,0.01100414697,0.009140084964,0.007384230945,0.005728275844,0.004131479908,0.002579939867,0.001078766051,-0.0003751990407,-0.001791895208,-0.003170390426,-0.004515989627,-0.005822948995,-0.007058707589,-0.008212265467,-0.009291250657,-0.01029322146,-0.01120449385,-0.01202706137,-0.01275287958,-0.01338902621,-0.01398660226,-0.01455552241,-0.01508291709,-0.01556081111,-0.01597701048,-0.01631687615,-0.01657438675,-0.01673702216,-0.01675396426,-0.01661455671,-0.01634172912,-0.01594545992,-0.0154213913,-0.01479106383,-0.01406001167,-0.01326070381,-0.01249642073,-0.01180413683,-0.01119623226,-0.01068016376,-0.01024235797,-0.009878260612,-0.009587393367,-0.009363956013,-0.009201452502,-0.009092515377,-0.009020419923,-0.008976179733,-0.008964372814,-0.008971526586,-0.008998275504,-0.009026296349,-0.008980621395,-0.008841617789,-0.008615022567,-0.008306027729,-0.007934604891,-0.007513204681,-0.007053097794,-0.006565208342,-0.006062002046,-0.005559518925,-0.005049540181,-0.004548395786,-0.004123644321,-0.003786807076,-0.003559200943,-0.003428661376,-0.003302272795,-0.003153550905,-0.002988849916,-0.002805856084,-0.002612958453,-0.002414809398,-0.002199570149,-0.001970142422,-0.001762047734,-0.001578142543,-0.001410769733,-0.0012505637,-0.00106299492,-0.0008369091998,-0.0005749793594,-0.0002774967113,5.91E-05,0.0004292996121,0.0008254581147,0.001236246665,0.001642254809,0.00202959425,0.002384754796,0.00269742806,0.002953164547,0.003147829567,0.003275756077,0.003339277641,0.003357594103,0.003334675072,0.00327793298,0.003187256642,0.003036582103,0.00282501374,0.002563416819,0.002261993027,0.00193770147,0.001604390229,0.001272656287,0.0009539333411,0.0006717235653,0.0004343279503,0.0002422235115,9.55E-05,-1.02E-05,-7.87E-05,-0.0001096833216,-0.000107507939,-8.49E-05,-4.66E-05,3.92E-06,6.49E-05,0.0001406599665,0.000229795498,0.0003311952667,0.000441666058,0.0005501184147,0.0006527682214,0.0007501736263,0.0008417326915,0.0009269787508,0.001006532759,0.001079457761,0.001146840597,0.001215327409,0.001286614378,0.001358579188,0.001430760038,0.001504213422,0.001577411966,1.65E-03,0.00172178079,0.001780070885,0.001822580577,0.001850677717,0.001864463981,0.001864538366,0.001852464341,0.001826527773,0.001787963916,0.001748929197,0.001712337346,0.001666909499,0.001612335913,0.001559020738,0.001507339445,0.0014623809,0.001422016713,0.001362254411,0.001280935731,0.001183054855,0.00107421984,0.0009780214407,0.0008989105352,0.0008368304346,0.0007890749404,0.0007337676211,0.0006627122937,0.0005936745705,0.0005241450237,0.0004199696107,0.0002863126197,0.0001033672421,-0.0001106609946,-0.0002349712356,-0.0002494232431,-0.0001608556928,7.08E-06,0.00017160932,0.0003012256014,0.0003687657349,0.0003643717472,0.000310705427,0.0002253184658,8.94E-05,-6.96E-05,-0.0001709859352,-0.0001947892916,-8.73E-05,0.0001433802513,0.000364571052,0.0005428453586,0.0006913120168,0.0008080021489,0.0009194916671,0.001034041534,0.00114632617,0.001259575188,1.39E-03,0.001530904187,0.001693101245,0.001873978953,0.002075027849,0.002292085307,0.002525494869,0.002767634463,0.002992723854,0.003192258548,0.003359118557,0.003493160437,0.003604800106,0.003700560889,0.003781997974,0.003855315913,0.003937317648,0.004036336858,0.004144628877,0.004265163359,0.00442474041,0.004624533322,0.004856543807,0.005113864831,0.00536239423,0.005591583842,0.005829118132,0.006077374539,0.006292854934,0.006487461769,0.006661890995,0.006848314699,0.007181117182,0.007694821591,0.008392896253,0.009265521638,0.01025419097,0.01132696564,0.01248122134,0.01369034106,0.0148944058,0.01606812693,0.017176132,0.0182065723,0.01920427928,0.02015455011,0.02106004297,0.02188661595,0.02248841308,0.02282633635,0.02290277726,0.0227250391,0.0223444111,0.02178272437,0.02104871406,0.02015687162,0.01911816779,0.0179474163,0.0166640442,0.01528469961,0.0138234994,0.01229953307,0.01072296701,0.009115239134,0.007518982737,0.00595278004,0.004449417531,0.003018052415,0.001615219785,0.0002539848817,-0.001072056397,-0.00233163436,-0.003380115066,-0.004181561244,-0.004742857847,-0.005074022201,-0.005229941511,-0.005234764103,-0.005094357819,-0.004825821259,-0.004444832881,-0.00396265453,-0.003428915987,-0.002857247886,-0.002184204918,-0.001431047356,-0.0006105479408,0.0002304163738,0.0008943748415,0.001339990245,0.001612685216,0.001753221776,0.001801581346,0.001789531892,0.00169448967,0.00150662541,0.001323774966,0.001094569804,0.0006959740684,-1.82E-05,-0.001214159919,-0.002957428943,-0.00521725372,-0.007901076207,-0.01083412954,-0.01384905334,-0.01673923279,-0.01930598072,-0.02141160868,-0.02283274339,-0.02331173741,-0.02258654823,-0.02033988265,-0.01626967658,-0.01005168226,-0.001342526887,0.01009426361,0.02434893278,0.04133545991,0.06078048497,0.082276975,0.1052077743,0.1287496375,0.1519568394,0.1738873079,0.1936549646,0.2105458333,0.2239544583,0.233273885,0.2382376648,0.2388575832,0.235309942,0.2279565024,0.2171716143,0.2033285726,0.1868591951,0.1682748766,0.1480892624,0.126813693,0.105000888,0.08322610054,0.06207073179,0.04216132177,0.02407537346,0.008282873253,-0.004891952222,-0.01542722658,-0.02341999124,-0.02896414244,-0.03239873469,-0.0341221662,-0.03465390263,-0.0347827311,-0.03494978455,-0.03532312201,-0.03597043783,-0.03679265711,-0.03771195086,-0.03871813993,-0.03972089605,-0.04043190231,-0.04075357106,-0.0407283388,-0.04037205484,-0.03971754301,-0.0388194064,-0.03767064972,-0.03633612511,-0.03505753555,-0.03391194686,-0.03289118942,-0.03200226501,-0.0312236828,-0.03053695954,-0.02996147787,-0.02947684976,-0.02897696984,-0.02843805353,-0.02786168357,-0.02725796979,-0.02668428641,-0.02615686289,-0.02568135996,-0.02525725498,-0.02486512717,-0.02449892593,-0.02415124157,-0.02381915885,-0.0235141569,-0.023230757,-0.02297018771,-0.02272061034,-0.02243559328,-0.02210273491,-0.02171407758,-0.02127095107,-0.02080515818,-0.02031993214,-0.01981914407,-0.0192974373,-0.01870997703,-0.01804724623,-0.01732945809,-0.01656318891,-0.01573860072,-0.01486991564,-0.01396198841,-0.01303937446,-0.01217834124,-0.0114064103,-0.01073881024,-0.01017968681,-0.009715095852,-0.009333279504,-0.009032282383,-0.008797746874,-0.008586783704,-0.008378443407,-0.008178271062,-0.007975519924,-0.007729884345,-0.007436903314,-0.007087923938,-0.006692088846,-0.006318922584,-0.005985327547,-0.005668004201,-0.005361482578,-0.005076261238,-0.004796081098,-0.004524859823,-0.004237164404,-0.00382394672,-0.003253721931,-0.002539964502,-0.001685676159,-0.0006947776965,0.0004187855424,0.001643536485,0.002960872086,0.004319297763,0.005699442168,0.007103153196,0.008526252752,0.009961352824,0.01141041012,0.01287096075,0.0143489436,0.01587752875,0.01746135305,0.01910108117,0.02078895932,0.02248987076,0.02419340894,0.02589166716,0.02758129196,0.02928831823,0.03101436878,0.03272750471,0.03441776292,0.03611011074,0.03778551687,0.03944364063,0.04105082325,0.0424705965,0.04366102628,0.04463923798,0.04540452019,0.04595260821,0.04629937234,0.04643799344,0.04639233426,0.04627155486,0.04610805423,0.04587920697,0.04558435299,0.04523741422,0.04482151029,0.04435182594,0.04379981462,0.04302528753,0.04199559541,0.04071331928,0.03919088997,0.03749734084,0.03565648122,0.03368304225,0.03158829296,0.02934688572,0.02696592943,0.02448561631,0.02192850294,0.01929110527,0.0166044383,0.01388909353,0.01118948492,0.008620399217,0.006232493129,0.004042888151,0.002072364699,0.0003431421249,-0.001143490453,-0.002380095736,-0.003381308011,-0.004203233498,-0.00486719165,-0.005399574268,-0.00581103776,-0.006067182824,-0.00618222313,-0.006159558931,-0.006030065205,-0.005910669249,-0.005837589855,-0.00581055138,-0.005831863696,-0.005879778887,-0.005945308475,-0.006036096037,-0.006145967413,-0.006247027769,-0.006330697389,-0.006397014884,-0.006445113331,-0.006479368175,-0.006501045216,-0.006508703052,-0.00650231496,-0.006486298871,-0.006461892079,-0.006420837569,-0.00636319251,-0.00630061514,-0.006233653677,-0.006164098997,-0.00608910668,-0.005988825178,-0.005859174286,-0.005705775325,-0.005531309304,-0.005338762889,-0.005133957333,-0.004916217054,-0.004692779194,-0.004487923035,-0.004308513023,-0.004162098908,-0.004048610825,-0.003946720282,-0.003856036465,-0.003774167683,-0.003705863143,-0.003693091328,-0.003742494663,-0.003830423753,-0.003946707587,-0.004096665518,-0.004260919537,-0.004434581975,-0.004590235539,-0.004628870389,-0.004524690768,-0.004272265502,-0.003877653771,-0.00339457617,-0.002837676276,-0.002214221174,-0.001528312439,-0.0007483643138,0.0001271527679,0.001058169345,0.002032052038,0.00307826024,0.004171951735,0.005317468776,0.006471356706,0.007454923706,0.008218083431,0.008764197411,0.009097788664,0.009269684647,0.009300801175,0.009194911683,0.008965713695,0.008630886733,0.008203792964,0.007705286799,0.007147879692,0.006525122327,0.005851348418,0.005137614552,0.004404992752,0.003711433756,0.003082381312,0.002514910963,0.002019941021,0.001624874162,0.001333026522,0.001160303514,0.001097449897,0.001087099399,0.001110847748,0.001161647009,0.001234267089,0.001342858985,0.001483068769,0.001650050906,0.001833046505,0.001999325663,0.00213643867,0.00224119544,0.002310113245,0.002343373081,0.002338875338,0.002300611581,0.002228040193,0.002103382722,0.001929225332,0.001712076102,0.0014645864,0.001215780577,0.0009802875141,0.0007776526606,0.0006154219817,0.0004867099036,0.0003905792092,0.0003324981261,0.0003113697195,0.0003170694073,0.0003473411982,0.0003994807913,0.0004729170249,0.0005795797799,0.0007206883608,0.000882385159,0.001060671149,0.001267105283,0.001493025136,0.001738961839,0.001988692788,0.002179986637,0.002294579215,0.002328049343,0.002281293667,0.002175818792,0.002020984619,0.001816922702,0.00157020129,0.001295033877,0.0009985345476,0.0006864974983,0.0003631705567,2.78E-05,-0.000315439945,-0.000664551473,-0.001013675284,-0.001347485208,-0.001660746387,-0.001945999889,-0.002201936167,-0.002443193174,-0.002668331536,-0.002877450274,-0.003063985247,-0.003196312451,-0.003266147455,-0.003279329679,-0.003237999413,-0.003143770851,-0.003004006573,-0.002818195956,-0.002596113431,-0.002374264382,-0.002164369029,-0.001965060121,-0.001777457416,-0.001599135436,-0.001427484556,-0.001264602349,-0.001107430178,-0.0009405336808,-0.0007596664958,-0.0005679190643,-0.0003658897832,-0.0001530067497,6.82E-05,0.0002977591251,0.0005320305866,0.0007559633909,0.0009650987576,0.001160647144,0.001342714367,0.00151285359,0.001672873494,0.001822230813,0.001963014964,0.002103412382,0.00224592124,0.002390406856,0.002536918259,0.002684166147,0.002831549808,0.002978513233,0.003124718559,0.003269360123,0.003411322193,0.003553980706,0.003695557298,0.003828192791,0.003952998008,0.004054687163,0.004135287309,0.00424454746,0.004384633449,0.004537266353,0.004684301317,0.00478741061,0.004839453756,0.00484365836,0.004813970536,0.004778621838,0.00476107019,0.004797943017,0.004914069102,0.005116852569,0.005429458432,0.005842138891,0.006375444208,0.007136331406,0.008141034457,0.009374451899,0.01081139247,0.01237870422,0.01403869541,0.01576110525,0.01751672715,0.01930274205,0.02108675095,0.02283002344,0.02448546484,0.02598588823,0.02728246229,0.02831132461,0.02903574175,0.02943994982,0.02951010165,0.02928727993,0.02878447025,0.02794741498,0.02680595704,0.02540094646,0.02379480614,0.02216442809,0.02057519839,0.01902657226,0.01752949413,0.01608677557,0.01469009528,0.0133562803,0.01207194975,0.01074245755,0.009344772671,0.00791604717,0.006464538517,0.004967905751,0.003451448178,0.001906532204,0.0003752649186,-0.0009599049079,-0.002048860288,-0.002902802948,-0.003528226194,-0.003966801668,-0.004242985925,-0.00436258285,-0.00434697519,-0.00424413753,-0.004078599985,-0.003860894897,-0.003607257141,-0.003329042494,-0.003036085628,-0.002766917522,-0.002534197963,-0.002284873861,-0.002019285602,-0.001733680479,-0.001428723791,-0.001179391397,-0.001008592262,-0.0009548159121,-0.001045937984,-0.001196243639,-0.001480773943,-0.002081818049,-0.003200364727,-0.005006956666,-0.007579377211,-0.01085068723,-0.01467138524,-0.01890163159,-0.0232398939,-0.02727869627,-0.03056910296,-0.03263860572,-0.03307617033,-0.03160759489,-0.02800942849,-0.02203611853,-0.01359221459,-0.002635699737,0.01081151244,0.02659835157,0.04451126556,0.06422365569,0.08533229635,0.1074429812,0.1299371802,0.1520554867,0.1729350376,0.1916553186,0.2074389714,0.2196281266,0.2277263793,0.2314241482,0.2306081541,0.2254672675,0.2163454873,0.2036281821,0.1878773481,0.1696987181,0.1497623125,0.1289177221,0.1078195637,0.08696854002,0.06680794183,0.047680263,0.02991452064,0.01384508623,-0.0002501639607,-0.01216649507,-0.0218045273,-0.02925822381,-0.03467316835,-0.03818102437,-0.04007717699,-0.0407100551,-0.04049915115,-0.04002709555,-0.03963106493,-0.0394414161,-0.03950448774,-0.03974789418,-0.0401145796,-0.04056659389,-0.04103725482,-0.04138239143,-0.04154220342,-0.04151874082,-0.04132055511,-0.04097844466,-0.04051602834,-0.03992942804,-0.03923973794,-0.03852043034,-0.03779701564,-0.03706587225,-0.03633178742,-0.03559992478,-0.03486707902,-0.03414073968,-0.03341425866,-0.03264215223,-0.0318138252,-0.03094389142,-0.03003678827,-0.02908989758,-0.0281150422,-0.02710953426,-0.02609051101,-0.0251268739,-0.02423901301,-0.02342480152,-0.02268406121,-0.02200370379,-2.14E-02,-0.02080483693,-0.02028182839,-0.01979060551,-0.01932459818,-0.01888155759,-0.01845919235,-0.01805951071,-0.01768165639,-0.01732161951,-0.01697788214,-0.0166510364,-0.01633840528,-0.01604368422,-0.015763303,-0.01547756013,-0.01518409301,-0.0148782345,-0.01456295144,-0.01427184579,-0.01401207042,-0.01376296459,-0.0135197814,-0.01329919791,-0.01308852575,-0.01289229344,-0.01268763666,-0.01237445384,-0.01192566192,-0.01134686337,-0.01064253586,-0.009837369649,-0.008944575429,-0.007974572883,-0.006940092794,-0.005846529797,-0.004706765499,-0.003548278414,-0.002387193978,-0.001227245378,-7.47E-05,0.001079304792,0.002236048983,0.003360784332,0.004458892141,0.005565139735,0.006704481727,0.007901317219,0.009175689689,0.01052421142,0.01195834193,0.01353236324,0.0152551236,0.01710749805,0.01907612035,0.02114499871,0.02329026629,0.02550232567,0.02775244353,0.02996977016,0.03212431463,0.03419071463,0.03615400684,0.03804093863,0.03984096139,0.04152490194,0.04306841724,0.04443540362,0.04560874342,0.04657764743,0.04734214931,0.04791879765,0.04831964828,0.04855069604,0.04862523426,0.04857161536,0.04840358811,0.04813344627,0.04776797153,0.04730450435,0.0467440854,0.04609421996,0.04535651574,0.04452027273,0.04358564587,0.04256100098,0.04145137622,0.04025794408,0.03898839003,0.03764691272,0.03624342644,0.03480628514,0.03334774475,0.03186498166,0.03036312747,0.02885698645,0.02734738882,0.02584418306,0.0243434691,0.02280206713,0.02121361013,0.01959081076,0.01794388884,0.01628659665,0.01463303497,0.01300331628,0.01141008243,0.009871100969,0.008392887793,0.00697503781,0.0056152165,0.004312150126,0.00306143948,0.001845660948,0.0006601873302,-0.0004926707692,-0.001613082929,-0.002694531146,-0.003735747293,-0.004747818882,-0.005725593658,-0.006671514561,-0.007574646872,-0.008385514012,-0.009090747674,-0.009693889029,-0.01019687326,-0.01061103663,-0.0109433385,-0.01119439052,-0.01137040376,-0.01148730835,-0.01155169103,-0.01156826839,-0.01153996124,-0.01146226313,-0.01133723188,-0.01116879827,-0.01096082669,-0.01072326166,-0.01046194772,-0.01017044775,-0.00985198059,-0.009529404728,-0.009203628436,-0.008876469729,-0.008541827706,-0.008157063866,-0.007713578166,-0.00722879211,-0.006710801931,-0.006154102165,-0.005573327708,-0.004972621866,-0.004371384956,-0.003850175835,-0.003419754358,-0.003085387829,-0.002823357588,-0.002546687588,-0.002233265876,-0.001852083882,-0.001408373795,-0.0009922784542,-0.0006259236615,-0.0002975418929,-5.64E-06,0.0002617148796,0.0005119705841,0.0007449301402,0.0009662575155,0.001198441341,0.001449908814,0.001707537448,0.001972679366,0.002271118742,0.002598497624,0.002960903107,0.003343972378,3.67E-03,0.003911762551,0.004094650328,0.004225575063,0.004316176893,0.00438420339,0.004452579268,0.004539194409,0.004684734764,0.004901571669,0.005169702477,0.005483745124,0.005862152175,0.006288172537,0.006756934446,0.00723728847,0.007622014386,0.007872627446,0.007987817264,0.00796198389,0.007781974102,0.007460915172,0.007006009052,0.00644514623,0.005863785878,0.005300861153,0.004756775919,0.004251065661,0.003827998524,0.003492062727,0.003265650378,0.003134067548,0.002996790662,0.002826686336,0.002628980863,2.40E-03,0.002173141244,0.001942667662,0.00171074158,0.001481159952,0.001266975007,0.001072481356,0.0008957063037,0.0007364363684,0.0005978560923,0.000479036712,0.0003729409396,0.0002771639799,0.0001911806345,0.0001134954234,4.58E-05,-1.20E-05,-7.01E-05,-0.0001299305108,-0.0001766174009,-0.0002082481302,-0.0002356709026,-0.0002610584766,-0.0002806604918,-0.0002943093575,-0.0003040152758,-0.0003099924071,-0.0003128310756,-0.0003125115675,-0.0003054617482,-0.0002912099913,-0.0002738155923,-0.0002540378888,-0.0002290316868,-0.0001993785053,-0.0001651583137,-0.0001280185943,-9.49E-05,-6.77E-05,-4.61E-05,-3.00E-05,-1.70E-05,-6.10E-06,1.42E-06,6.46E-06,1.23E-05,1.89E-05,3.16E-05,4.89E-05,5.61E-05,5.36E-05,3.21E-05,-2.51E-06,-6.89E-06,2.41E-05,9.28E-05,0.000188335413,0.0002616405148,0.0003004169416,0.0002873765986,0.0002257173504,0.0001616409734,0.0001073056279,6.47E-05,3.48E-05,2.71E-06,-3.08E-05,-6.70E-05,-9.96E-05,-0.0001004519501,-6.32E-05,1.75E-05,0.0001394197315,0.0002782915951,0.0004311735448,0.0005941637599,0.0007707588284,0.0009956686245,0.00127592532,0.001593771161,0.001944141735,0.002335562732,0.002755242196,0.003209056504,0.00367636461,0.004069900116,0.004368117351,0.00456221023,0.004657610654,0.004711555155,0.004734727149,0.0047345277,0.00470821977,0.004596681902,0.004389289568,0.004130474019,0.00383166764,0.003458163796,0.003037487088,0.002560251342,0.002075524942,0.001795332727,0.001776531849,0.002012840803,0.002495363918,0.00315658791,0.003968109892,0.004922188591,0.006000050965,0.007183074389,0.008453938963,0.009779814918,0.01114283896,0.01255458747,0.01399255844,0.01544747358,0.01688491003,0.01819915621,0.01935313427,0.02033108354,0.02112584818,0.02176380761,0.02224666841,0.0225762646,0.02274978355,0.02273407131,0.02252494037,0.02214467579,0.0216031902,0.02089464521,0.02003694331,0.01903595038,0.01791818409,0.01677156252,0.01562822232,0.01448429644,0.01334805631,0.01223120165,0.01113140999,0.0100658027,0.009026921854,0.007943123441,0.006798661622,0.005623733478,0.004426713339,0.003193180126,0.001943959516,0.0006762425651,-0.0005768210726,-0.00168017705,-0.002593830551,-0.003328044426,-0.003884044608,-0.004275702495,-0.00451804539,-0.004613508341,-0.004578240221,-0.004470672185,-0.004315900461,-0.004085644914,-0.003790081294,-0.003498324789,-0.00320888651,-0.002950978225,-0.002699629598,-0.002269377865,-0.00162562945,-0.0008073893115,0.0001563043214,0.001199065612,0.002264976188,0.003284326632,0.004184586151,0.004948125228,0.005474246389,0.005598363239,0.005154924352,0.004034225795,0.002188592167,-0.0003127458369,-0.003331739888,-0.006760650974,-0.01032593559,-0.01364629129,-0.01630419635,-0.01786935856,-0.01799532969,-0.01647435468,-0.013163632,-0.007895010446,-0.0006713550823,0.008443472452,0.01930344398,0.03164978279,0.04522219751,0.05970611196,0.07477606853,0.09019156682,0.1055233855,0.1202489235,0.1337846648,0.1454923859,0.1548549037,0.1614398812,0.1649323934,0.1651560005,0.1620918168,0.155975866,0.1471528801,0.1359754501,0.1229443722,0.1085843061,0.09346378071,0.07830023613,0.0635772078,0.04959112456,0.03655972042,0.02458696591,0.01378599215,0.004264601611,-0.003902286818,-0.01066851376,-0.01603866835,-0.02011452769,-0.02300229744,-0.02473572261,-0.02549588174,-0.02549753272,-0.02501366586,-0.02445810773,-0.02405594796,-0.02387716076,-0.0239516557,-0.02423621806,-0.02468918076,-0.02526235514,-0.02589277783,-0.02647443871,-0.02695638479,-0.02733038705,-0.02760379023,-0.02780456599,-0.02794519381,-0.02805941392,-0.02815177447,-0.02818810281,-0.02816346454,-0.02807093156,-0.02791305014,-0.02772515374,-0.0275067346,-0.02726124907,-0.02697619837,-0.02657931284,-0.02605412495,-0.02541764854,-0.02467762783,-0.02384377591,-0.02293429154,-0.02194895926,-0.0209100337,-0.01989199636,-0.01891838619,-0.01800104839,-0.01714252394,-0.01630911867,-1.55E-02,-0.01471289819,-0.01395890549,-0.01328050639,-0.01268824914,-0.01217956535,-0.01174972055,-0.01138679558,-0.01107635746,-0.0108144429,-0.01058430622,-0.01033837571,-0.01005654817,-0.009736337379,-0.009370611919,-0.008945216096,-0.00845981213,-0.007911895505,-0.007308252024,-0.006681176924,-0.006041324145,-0.005387364439,-0.004721624804,-0.004044848873,-0.003356386862,-0.002662148586,-0.001961160199,-0.001235389262,-0.0004832749463,0.0002892757262,0.001075211627,0.001867726394,0.002660724569,0.003425216906,0.004157405082,0.004880481212,0.005599017232,0.006330090709,0.00707663383,0.007798343062,0.008501827712,0.009200976379,0.009918515285,0.01073606491,0.01167612324,0.01273355824,0.01390421225,0.01516627062,0.0165057216,0.01792068223,0.0193982921,0.02090621051,0.02243065425,0.02396217041,0.02549438105,0.02703403099,0.02857629323,0.0301144328,0.03164027874,0.03313364375,0.0345840954,0.03599596125,0.03736367353,0.03866448543,0.03989633008,0.04105215686,0.04213648279,0.04319651,0.04424256935,0.0452471009,0.04620376899,0.04713512288,0.04802442737,0.04887529251,0.04965766163,0.05024123824,0.05058835244,0.05071603222,0.05062680812,0.05032572304,0.04983079599,0.04913951629,0.04827559382,0.04733296286,0.04634224759,0.04528996096,0.04417954906,0.0430241758,0.04181427964,0.04056574637,0.03926028649,0.0377932466,0.03614329592,0.03431555591,0.03232363144,0.03022638304,0.02804589966,0.02579868618,0.02349657508,0.02111791424,0.01867135193,0.01619199068,0.01370151367,0.01120970968,0.008747702375,0.006319362516,0.00396082965,0.001800167926,-0.0001271235354,-0.001818313194,-0.003278965046,-0.004559719601,-0.005677399744,-0.006644572861,-0.007469372103,-0.008131754236,-0.008640147195,-0.009013162851,-0.009271580397,-0.00945108395,-0.009576764684,-0.009666412264,-0.009738522995,-0.00982639743,-0.009942777531,-0.01009002073,-0.01026924022,-0.01047428207,-0.01070063264,-0.01094896949,-0.01121392114,-0.01147963417,-0.01174009341,-0.01198899976,-0.01222399296,-0.01245391585,-0.0126761671,-0.01289047834,-0.01309053008,-0.01325042738,-0.01336275608,-1.34E-02,-0.01344847681,-0.01342790477,-0.01336991767,-0.01327464609,-0.01314462941,-0.01298642256,-0.01280287702,-0.01259542852,-1.24E-02,-1.21E-02,-0.01183828309,-0.01154305591,-0.01122833424,-0.01089656251,-0.01054878839,-0.01018750301,-0.009813265019,-0.00942227494,-0.009015377418,-0.008592550863,-0.00815607997,-0.007716683128,-0.007277542637,-0.006835570963,-0.0063906534,-0.005945602189,-0.005498402509,-0.005051216833,-0.004600253991,-0.004126419179,-0.003625490598,-0.003097373901,-0.002544175702,-0.001976780764,-0.001398389356,-0.0008136779739,-0.0002234416912,0.0003825109371,0.001002765641,0.001637400536,0.002279713468,0.002909100889,0.003520351558,0.004094825962,0.004630337242,0.005174534923,0.005726489753,0.006259655862,0.006752216336,0.007170947443,0.007500270359,0.007743788191,0.00790067209,0.007947461489,0.007895594401,0.007760136599,0.007572087486,0.007399463851,0.007264075755,0.007189125558,0.007172746982,0.007152772719,0.007113778776,0.007063715186,0.007002887653,0.006936801229,0.006869079095,0.006797299858,0.006723637343,0.006665250198,0.006626570789,0.006592240281,0.006559046092,0.006550288419,0.006559842048,0.006572083175,0.006568059795,0.006507312635,0.006374391273,0.006172615228,0.005904992063,0.00557208323,0.005179319109,0.004760731024,0.004328088395,0.003847890011,0.003322471589,0.002760993426,0.002170623431,0.001571365185,0.0009749087929,0.000362970424,-0.0002557543523,-0.0008331539511,-1.35E-03,-0.001816374305,-0.002218896683,-0.002539653675,-0.002776596968,-0.002903373942,-0.002927710749,-0.002914920887,-0.00288346246,-0.002839196324,-0.002784904029,-0.002697488319,-0.002578522303,-0.002432308382,-0.002268715393,-0.002124836142,-0.002011531538,-0.00192832568,-0.001874855184,-0.001841541504,-0.001824173658,-0.001824261976,-0.001839303404,-0.001859240441,-0.001881024697,-0.001906956037,-0.001936260677,-0.001969498201,-0.002004404382,-0.002038647749,-0.002067796804,-0.002085274575,-0.00208711543,-0.002061200003,-0.002005686656,-0.00192992058,-0.001837358853,-0.001727242415,-0.001602656766,-0.00146876264,-0.001328280876,-0.001191503094,-0.001059438986,-0.00092186271,-0.0007762144601,-0.0006213298551,-0.0004546921119,-0.0002845826946,-0.0001118374706,9.30E-05,0.0003321586139,0.0005678762407,0.0007974686498,0.00101510346,0.001226341631,0.001491445772,0.001822203386,0.002177184118,0.002548573058,0.002960272451,0.003401237494,0.003877258743,0.00436656293,0.004767246642,0.005055154344,0.005234740916,0.005313159243,0.005339852911,0.005326533458,0.005275910359,0.00518600279,0.005028566783,0.004798356318,0.004500386209,0.00414126447,0.003723497197,0.003276501741,0.002810520372,0.002370080287,0.002083626382,0.002002815398,0.002153834365,0.002552177367,0.003195524417,0.00406446454,0.00515906029,0.006444121324,0.007804880299,0.009195003972,0.01059831165,0.01199661231,0.01338296023,0.01474996647,0.01608371419,0.01737756525,0.01865038882,0.01990350265,0.02109443542,0.02221258917,0.02332074962,0.02439247804,0.02541590739,0.02632774121,0.02691905712,0.02711998085,0.02690962058,0.02628396506,0.02529047498,0.02397642841,0.02235409238,0.02048629008,0.01853138876,0.01656214534,0.01463778808,0.01279196863,0.01101218095,0.009311110753,0.00770156376,0.006197008554,0.004832890249,0.003617915996,0.002550700948,0.001626645189,0.0008255775735,0.0001375446497,-0.0004399207518,-0.0009128554791,-0.001295656171,-0.001594985417,-0.001817683146,-0.001970634064,-0.002041088729,-0.002044193853,-0.001993080544,-0.001919983422,-0.001885401034,-0.001918790813,-0.002074548979,-0.002358129394,-0.002707570134,-0.003108669268,-0.003527723672,-0.00395319678,-0.004476022296,-0.005086523238,-0.005688466451,-0.006224003486,-0.006674176516,-0.00701043613,-0.007272849084,-0.007475406331,-0.00749325401,-0.007369095111,-0.00724768975,-0.007268562393,-0.007564848085,-0.00820439234,-0.009140729515,-0.01030342712,-0.01164268002,-0.01301179072,-0.01418808126,-0.01496213401,-0.01511848975,-0.01446889982,-0.01290557186,-0.01031443583,-0.006532403789,-0.001457548378,0.005009240692,0.01296631985,0.02242236352,0.03334523162,0.04560256887,0.05899546262,0.07333913195,0.0882259337,0.1031029541,0.1173021769,0.1300840512,0.1408448818,0.1490883374,0.1544636894,0.1567757478,0.1559636621,0.1522019264,0.1457619745,0.1369032688,0.1260227786,0.1135277499,0.09985662246,0.08561341516,0.07122245924,0.05697707167,0.04316977483,0.03005870807,0.01788698338,0.006925829843,-0.002598950524,-0.01056958652,-0.01690912729,-0.02165981399,-0.02494177546,-0.02690814368,-0.02779456323,-0.02792862128,-0.02763498248,-0.02720837567,-0.02688613006,-0.02676992952,-0.02689568493,-0.02727256917,-0.02784670332,-0.02854066004,-0.02925216,-0.02979235456,-0.03007127222,-0.03008086987,-0.0298203747,-0.02933660689,-0.02866840633,-0.02781777891,-0.02682565299,-0.0258304535,-0.02487843762,-0.02396546198,-0.02309741359,-0.02226921614,-0.02147167943,-0.02071460282,-0.01998588083,-0.01921876918,-0.01839571789,-0.01753273266,-0.01663345139,-0.01569457128,-0.01472915954,-0.01373425159,-0.0127290035,-0.01179243071,-0.01094776853,-0.0101889089,-0.009515032639,-0.008917334959,-0.008386748728,-0.007923129123,-0.007516327255,-0.007131568732,-0.006757144602,-0.006393359854,-0.006038318028,-0.005694310452,-0.005363263262,-0.005040420736,-0.004728104604,-0.004442703119,-0.004186294402,-0.003961234594,-0.003763948469,-3.57E-03,-0.003386588473,-0.003197939252,-0.003008739408,-0.002844514599,-0.002709483433,-0.002585534058,-0.002467298334,-0.00236638056,-0.002270934314,-0.002183472782,-0.002084006226,-0.001889825859,-0.001577793199,-0.001149880021,-0.0006082432769,2.41E-05,0.000737460307,0.001530112927,0.002395392547,0.003323205825,0.004306937386,0.005337071158,0.00640823399,0.007523667497,0.008676814263,0.009866395598,0.01108246308,0.0122926796,0.01348730131,0.01465823826,0.01580510119,0.01694975672,0.01809250645,0.01923770668,0.02037895065,0.02147449971,0.02251645972,0.02351095538,0.02446508114,0.02539645002,0.02631529617,0.02723672124,0.02817165837,0.02910885204,0.03005784189,0.03105448293,0.03211796619,0.03324700359,3.45E-02,0.03571801181,0.03704690156,0.0385018472,0.04007518294,0.04171124228,0.04336622985,0.04499552995,0.04654921348,0.0480084083,0.04933033237,0.05039362239,0.05116196994,0.05163669871,0.05182232851,0.05175435569,0.05145221321,0.05092395659,0.05018718706,0.0492687938,0.04818798647,0.04696632202,0.04562251423,0.0441572113,0.042586677,0.04095272866,0.03927753071,0.03756206361,0.0358138771,0.03403543897,0.03222399833,0.03037564862,0.02848634975,0.02652557301,0.02449107832,0.02240798614,0.02028554096,0.01813944004,0.01597919811,0.01379291082,0.01159506876,0.009396586908,0.007222004492,0.005141540235,0.003185502858,0.001354107181,-0.0003416926205,-0.001871025284,-0.003234012545,-0.004427470201,-0.005466696508,-0.006417108843,-0.007300380378,-0.008121846871,-8.89E-03,-0.009581875679,-0.01021049323,-0.01077379754,-0.01127810226,-0.01174178678,-0.01216883861,-0.0125753369,-0.01296023894,-0.01328270126,-0.01354387321,-0.01373878621,-0.01388153239,-0.01405963442,-0.01429597778,-1.46E-02,-0.01482629616,-0.01514598849,-0.01548940208,-0.01586902126,-0.01624260172,-0.01641457,-0.01633576017,-0.01601791014,-0.01547551282,-0.01477152575,-0.01394100232,-0.01300499814,-0.01199440375,-0.01094174627,-0.00987958833,-0.008849535378,-0.007881951922,-0.007005840804,-0.006242903337,-0.005601610865,-0.005091733118,-0.004749204795,-0.004578951003,-0.004548025907,-0.004642809194,-0.004880219338,-0.005232542088,-0.005695003309,-0.006222916836,-0.006660261924,-0.006955006707,-0.00710135274,-0.007091374915,-0.006946870768,-0.006672429486,-0.006264171561,-0.005727825613,-0.005056281355,-0.004260924036,-0.003377262621,-0.002429836352,-0.001420538156,-0.0003819233724,0.0006542524997,0.001647187478,0.00249113667,0.003152983935,0.003636873921,0.003946711185,0.004109643819,0.004145120547,0.004053683836,0.003855208903,0.003603715198,0.003319724934,0.003024488264,0.002725573557,0.002391659453,0.00203020576,0.001643445877,0.001252353005,0.00093551349,0.0007158121817,0.0006030020631,0.0005948664315,0.000658692565,0.0007801841377,0.0009527393672,0.001165317954,0.001408908596,0.001671254745,0.001936444408,0.002191988993,0.002420700001,0.002610008862,0.002762440473,0.002870061429,0.00289910124,0.002843771366,0.002708258603,0.002500449444,0.002240899162,0.001940471687,0.001617017829,0.001279006481,0.0009146850976,0.0005368719931,0.0001422138618,-0.0002465560039,-0.0005489857853,-0.0007457402806,-0.0008027051055,-0.0007279071854,-0.0006141362033,-0.0004909867701,-0.0003575682656,-0.0002237988878,-9.14E-05,3.37E-05,0.0001292640949,0.000189865376,0.0002277149836,0.0002471661331,0.00023631135,0.0001987063838,0.0001615957081,0.0001261124469,0.0001073911841,9.85E-05,3.08E-05,-0.0001035189896,-0.0002950285945,-0.0005255773116,-0.0007403300512,-0.0009154442941,-0.001027697712,-0.001068583756,-0.001042093124,-9.48E-04,-0.0008054837985,-0.0006183512563,-0.0003529996683,-2.19E-05,0.0003784181861,0.0008191858784,0.001173481767,0.001405509685,0.001526309166,0.001538820942,0.001461959791,0.001312430967,0.001087607422,0.000805108745,0.0005262200851,0.0002707959716,4.38E-05,-0.0001521790672,-0.0003336140839,-0.0005023655411,-0.000657093077,-0.0007956151121,-0.0009059050061,-0.0009853093688,-0.001036682863,-0.001061565855,-0.001061900526,-0.001040867053,-0.0009997309272,-0.0009422646656,-0.0008790074018,-0.0008145162088,-0.0007487057134,-0.0006834618431,-0.0006228613609,-0.0005676983171,-0.0005196757028,-0.0004789587364,-0.0004362706676,-0.0003892427466,-0.0003525355596,-0.000326405942,-0.000291048551,-0.000250059841,-0.0001908789128,-0.0001245075626,-0.0001237712427,-0.0001993922341,-0.0003518515203,-0.0005674752899,-0.0007750827551,-0.0009596105492,-0.001111249514,-0.001235008648,-0.001397380738,-0.001613348049,-0.001852777418,-0.002108833193,-0.002402449586,-0.002715743782,-0.003050653474,-0.003376659759,-0.003561244138,-0.003563953978,-0.003414181081,-0.003112369938,-0.002632254293,-0.001993419184,-0.001186548962,-0.0002478530888,0.0006530351513,0.001473633374,0.002230660101,0.00293763001,0.003638388574,0.004362793466,0.005129952066,0.005960894034,0.006918190243,0.00801212059,0.009219545852,0.0105211783,0.01189619789,0.01331205938,0.01474017096,0.0161437087,0.01744084507,0.01860123173,0.01960434257,0.02044424119,0.02115751962,0.02174378073,0.02220719836,0.02253667922,0.02266910077,0.02259313799,0.0223110271,0.02183328304,0.02120521789,0.02044279387,0.01955658553,0.01855457159,0.0174160701,0.01614378134,0.01477730057,0.01333079151,0.01177612227,0.01013738397,0.008418002398,0.006659356187,0.005021446614,0.003555455932,0.002243024401,0.00108775788,0.0001004749353,-0.0007345607558,-0.001406935966,-0.001942631222,-0.002471219653,-0.003029578172,-0.00358464599,-0.004133149799,-0.004696173202,-0.005250119404,-0.005811344435,-0.006338445632,-0.006646339792,-0.006689483791,-0.006454553998,-0.005949396865,-0.005294503571,-0.004523724033,-0.003655680529,-0.002703618583,-0.00160326689,-0.0003548879721,0.0009400522518,0.002246485366,0.003653606652,0.005105588729,0.006553741211,0.007884175921,0.008771918521,0.009063496316,0.008648287924,0.007403396825,0.005346483608,0.00253000416,-0.0008989708327,-0.004689093647,-0.008570599124,-0.0121019097,-0.01471021139,-0.01575226647,-0.01462519703,-0.010904686,-0.004380158037,0.00494742384,0.01692995876,0.03122705411,0.04731184754,0.06455483626,0.08232677222,0.09998920116,0.1170253248,0.1329432731,0.1471301038,0.1591990001,0.1688925764,0.1759841027,0.1802921775,0.1816820581,0.1800055326,0.1751891671,0.1672912111,0.1564806441,0.1431347598,0.1277495977,0.1108572484,0.09311369496,0.07526748594,0.05806056702,0.04220817554,0.02822562341,0.01628073691,0.006405728919,-0.001388477845,-0.007321013063,-0.01162264352,-0.01467247875,-0.01719638516,-0.01954225349,-0.02184153926,-0.0241342243,-0.02624041197,-0.028117442,-0.02978553675,-0.03124805452,-0.0325259088,-0.03362912887,-0.03456299421,-0.03533708464,-0.03595388339,-0.03642187528,-0.03674836222,-0.03694303178,-0.03702616681,-0.03700938486,-0.03689109702,-0.03667858684,-0.03639442648,-0.03604268809,-0.03563238318,-0.03516160966,-0.03458976925,-0.03391013687,-0.03314762803,-0.03231054684,-0.03138702668,-0.03039441439,-0.0293312572,-0.02822508828,-0.02718450999,-0.02624160446,-0.0253933807,-0.02463932448,-0.0239573972,-0.02333648705,-0.02277828891,-0.02227387777,-0.02179677986,-0.02133711835,-0.02088964472,-0.02045110112,-0.02002869857,-0.01961972121,-0.01922258427,-0.01883146735,-0.01842578269,-0.01799892489,-0.01755084082,-0.01708097158,-0.01659225594,-0.01608600105,-0.01556206204,-0.01502135175,-0.01446754452,-0.01390249141,-0.01332282134,-0.01272864243,-0.01213063997,-0.01152947221,-0.01091482509,-0.01028403513,-0.009636929698,-0.008973981804,-0.008294266993,-0.007600341672,-0.006896761158,-0.006185003401,-0.005480474145,-0.004782802553,-0.004069122998,-0.003333923264,-0.002577425224,-0.001799623716,-0.001007500915,-0.0002013119156,0.0006194963724,0.001456862734,0.002320436145,0.003213531559,0.004131539851,0.005074945071,0.0060517422,0.007060214725,0.008103866581,0.009178736227,0.01025275061,0.01131824785,0.01239638216,0.01349013998,0.01457989768,0.0156700971,0.01675481987,0.01784629226,1.90E-02,0.02025109006,0.02157858277,0.02298235571,0.02442001921,0.02587957929,0.027353021,0.0288369499,0.03036077466,0.03192629161,0.03349932907,0.03506879305,0.03665875181,0.0382479435,0.03983778846,0.04139166427,0.04276178603,0.04390462626,0.04482887954,0.04553575686,0.04604716611,0.04637965803,0.04653113171,0.04651822563,0.04639818953,0.04619127677,0.04589672323,0.04551870571,0.04506040292,0.04452107918,0.04390140793,0.04319876756,0.04239611679,0.04149144919,0.0404884985,0.0393920702,0.03821416474,0.0369619842,0.03563973806,0.03425348903,0.03280976858,0.03131409847,0.02977588941,0.02820054447,0.02658492257,0.02493531184,0.02325615765,0.02155671633,0.01986389662,0.01818901668,1.65E-02,0.01488950953,0.01328207763,0.01170787378,0.01017208719,0.008671347995,0.007172539882,0.005668193271,0.004177149964,0.00270339402,0.001231274191,-0.0002277600967,-0.001678377201,-0.003100039122,-0.004399268438,-0.005550873914,-0.00656560747,-0.00744727941,-0.008211689542,-0.008872169727,-0.009428106133,-0.009891942448,-0.01031017835,-0.01069765173,-0.01104526315,-0.01135378343,-0.01163114167,-0.01187173402,-0.01208490176,-0.01226023577,-0.01233735697,-0.01230462295,-0.01216432622,-0.01192562333,-0.01162598258,-0.01127846411,-0.01089966846,-0.01049557319,-0.01003765405,-0.009532535627,-0.008991703923,-0.008437836296,-0.007920305762,-0.007462970666,-0.007092183476,-0.006817525263,-0.00663340848,-0.0065265561,-0.006500646053,-0.006528154788,-0.006546647502,-0.006530862685,-0.0064331683,-0.00624680302,-0.006029499922,-0.005793607168,-0.005533023253,-0.005248492385,-0.004927856029,-0.004571582756,-0.004179417485,-0.003756900288,-0.003324115312,-0.002886586262,-0.002454156996,-0.002027174262,-0.00158136034,-0.00111790729,-0.0006349742669,-0.0001415473795,0.0003104953751,0.0007069321587,0.001069258451,0.001401516522,0.001679222495,0.001913262635,0.00211909506,0.002318181369,0.002590971431,0.002959779265,0.003397610169,0.003898073027,0.004478980957,0.005118634187,0.005815541775,0.006533160825,0.007130543576,0.007567789584,0.007843764083,0.007961813354,0.007968393683,0.007880132785,0.007699213527,0.007434742744,0.007091529397,0.006676692327,0.006213977502,0.005712366959,0.005153348,0.004550832615,0.003904776807,0.003239946708,0.002653560384,0.002173932921,0.001800383604,0.001531896987,0.0013433989,0.001225083184,0.001175919508,0.001189371863,0.001257527985,0.001374472597,0.001526040931,0.001706417855,0.001927096304,0.002179923282,0.002462762774,0.002760998594,0.003020299654,0.003223047042,0.003373209173,0.003469270458,0.003510255256,0.003500349235,0.003438791636,0.003332669846,0.0032094004,0.003078621302,0.002938247034,0.002790416404,0.002639748698,0.00248558999,0.002330580364,0.002172372657,0.001991418307,0.001782645515,0.001558596083,0.001320598636,0.001054543939,0.0007672091989,0.0004505085286,0.0001185030125,-0.0001567365813,-0.0003600441151,-0.0004900455167,-0.000555334308,-0.0006034994553,-0.000647926946,-0.0007010949761,-0.0007633885622,-0.0008047256571,-0.00081860894,-0.0008099773027,-0.0007804295017,-0.0007340299982,-0.0006735445726,-0.0006008334045,-0.0005177997084,-0.0004295709998,-0.000339831974,-0.0002399032678,-0.0001326004383,-4.06E-05,3.75E-05,8.76E-05,0.0001193920252,0.0002039687395,0.0003510663793,0.0005609324513,0.0008172915162,0.001053168101,0.00124956385,0.001376205425,0.001434196222,0.001485535936,0.001544353434,0.001611892474,0.001688054926,0.001743774596,0.001776164344,0.001802177373,0.001827607709,0.001861335514,0.001906666152,0.001959385194,0.002018908291,0.00209007666,0.002168579166,0.002257955306,0.00235046098,0.002409431674,0.002426259468,0.002400089805,0.002333752157,0.002248381248,0.002149970254,0.00203879511,0.001916726475,0.001775585842,0.001614899699,0.001452816111,0.001293892859,0.001114180991,0.0009215289871,0.0007260732631,0.0005462109992,0.0004467623748,0.0004474674882,0.0005400732782,0.0007238203276,0.0009975346996,0.001351277368,0.001789241134,0.002297582374,0.002817286986,0.003332464816,0.003843526162,0.004352794435,0.004881045365,0.005435591727,0.006019489333,0.006637014866,0.007284201833,0.007963601066,0.008692757768,0.009477090713,1.03E-02,0.01118270923,0.01210948837,0.01309304611,0.01421123183,0.01546389131,0.01681322616,0.01821718249,0.01962091117,0.02097381571,0.02223188661,0.02335292594,0.02425072894,0.02489791345,0.02529774081,0.02546006564,0.02539691139,0.02512913052,0.02466014185,0.02401301441,0.0232589605,0.02242379242,0.02151136305,0.02052883866,0.01946979653,0.01833777776,0.01714382777,0.01589395173,0.01459358858,0.01325202915,0.01185929919,0.01042438013,0.009000003022,0.00759254512,0.006205170129,0.00482963391,0.003391258347,0.001874230357,0.000328598504,-0.00123219249,-0.002854522869,-0.00450928056,-0.006179502424,-0.007807019412,-0.00919879584,-0.01029702106,-0.011096633,-0.01160346982,-0.01188961531,-0.01198143093,-0.01188765251,-0.01162318438,-0.01119015952,-0.01060301816,-0.009889724923,-0.009069183759,-0.008156171198,-0.007178120165,-0.006122773291,-0.005016121703,-0.003992555131,-0.003080118624,-0.00224066983,-0.001447361609,-0.0006939447828,1.98E-05,0.0006419694303,0.001132066459,0.001548915724,0.001779766,0.001618471818,0.0008091919998,-0.0009054205782,-0.003599983226,-0.007189623565,-0.01143309822,-0.01595431562,-0.02028239191,-0.02385758043,-0.02604416055,-0.02624686462,-0.0240180435,-0.01908805727,-0.01138107662,-0.0009600172246,0.01199564222,0.02722013939,0.0443659063,0.06303001717,0.08277153705,0.1031401097,0.1236723906,0.1438385557,0.1630994968,0.1808916962,0.1965976811,0.2096056364,0.2193694444,0.2253886833,0.2272837268,0.2248302459,0.2180182942,0.2071868386,0.1928333218,0.175480509,0.1558701331,0.1347798149,0.1130779797,0.09184372162,0.07177207143,0.0532509194,0.03648685331,0.02143853797,0.00810713712,-0.003459066707,-0.01330754071,-0.02158882692,-0.02838688128,-0.0338484542,-0.03804415503,-0.04087945025,-0.04248693023,-0.04299886688,-0.04267155692,-0.04205862952,-0.04141417177,-0.04084758412,-0.04042679633,-0.04007176886,-0.03976161311,-0.03954263379,-0.03939437732,-0.03918613077,-0.03887975668,-0.03848311441,-0.03799985818,-0.0374471145,-0.03685030186,-0.03620593267,-0.03554721399,-0.03498144711,-0.03454291624,-0.03426812867,-0.03416036943,-0.03414656656,-0.03420054559,-0.03431155542,-0.03446023886,-0.03464590889,-0.03485061342,-0.03501759726,-0.03512510013,-0.03518098743,-0.0351763214,-0.03510833878,-0.03496773061,-0.03471916172,-0.03435779514,-0.03388125704,-0.0332969951,-0.03265130529,-0.03195027928,-0.03119942619,-0.03039288978,-0.02946321045,-2.84E-02,-0.02724042555,-0.02601238697,-0.02463992594,-0.02315164209,-0.02156693475,-0.0199545313,-0.01853764478,-0.01738748871,-0.01652988373,-0.01596060192,-0.01559542493,-0.01538684821,-0.01531830715,-0.01534428184,-0.01538182293,-0.01537782185,-0.01528784835,-0.01507603397,-0.01470068054,-0.01415753305,-0.01343523691,-0.01255439752,-0.01161132236,-0.01063826276,-0.009649528765,-0.008654281041,-0.007627562156,-0.006574166245,-0.005505102039,-0.004435413074,-0.003402583748,-0.00242383121,-0.001507160058,-0.0006626244349,0.0001089873877,0.0008024687426,0.001390640386,0.001871554675,0.002259737443,0.002562623619,0.002827880852,0.003073340051,0.003244195842,0.003368866684,0.003481379092,0.0036424623,0.004021704984,0.004674545412,0.005614200075,0.006835236537,0.008271745584,0.009887589093,0.01167827203,0.01361303163,0.01561642817,0.01765237696,0.01970859066,0.02176611997,0.02380218884,0.02580192414,0.02775630467,0.02965386963,0.0314906877,0.03326346436,0.03492936095,0.03648492831,0.03799888682,0.03945624319,0.04088415747,0.04224162873,0.04328713307,0.04397119907,0.04432862906,0.04439340923,0.04425836416,0.04397306939,0.04355662013,0.04303647135,0.04248039891,0.04189414873,0.04128432417,0.04061917307,0.03980103333,0.03880286078,0.03758527905,0.03615738772,0.03463095412,0.03303972005,0.03137900429,0.02965805082,0.02787407215,0.02603113875,0.0241392478,0.02220571953,0.02022581437,0.01820334073,0.01617064813,0.01413769181,0.01206816979,0.009977945301,0.007879885468,0.005810207705,0.003880622792,0.002128606816,0.0005579376626,-0.0008311778744,-0.002053037916,-0.003124347402,-0.004060274414,-0.004885130116,-0.005635996971,-0.006332925119,-0.007002076114,-0.007650309544,-0.008256435491,-0.008814076688,-0.009328989964,-0.009796741983,-0.01020211953,-0.01054030711,-0.01080036285,-0.0109827393,-0.01110329156,-0.01116935226,-0.01118130392,-0.01114446764,-0.01107214687,-0.01097111177,-0.01084074156,-0.01068479422,-0.01051408088,-0.01033080318,-0.01013853501,-0.009936766609,-0.009707896002,-0.009448384981,-0.009173643673,-0.008886812381,-0.008571124055,-0.008234499379,-0.007876391888,-0.007514540396,-0.007215216624,-0.006997766968,-0.006873928474,-0.00684118986,-0.006869126203,-0.006943545516,-0.007053228088,-0.007185944778,-0.007337832071,-0.007494136685,-0.007638725822,-0.007755397823,-0.007802475303,-0.007774992819,-0.007665446097,-0.00748606546,-0.007305808672,-0.007144099236,-0.006998954911,-0.006870291994,-0.006744568467,-0.006615754542,-0.00648592388,-0.006351321678,-0.006196846204,-0.006017583232,-0.005817838142,-0.005597512553,-0.005350336658,-0.005078434293,-0.004782276643,-0.004467779694,-0.004155158781,-0.003851288076,-0.003560898195,-0.0032842809,-0.003016029228,-0.002749593327,-0.002487137092,-0.002219271912,-0.001918976041,-0.001578732146,-0.00117379245,-0.0007054416045,-0.0002205308511,0.0002725524965,0.0007707758596,0.0012767399,0.001831144007,0.002441312395,0.003080044979,0.003739609536,0.004437611734,0.005156006195,0.005900221422,0.006639721812,0.007245874742,0.00768397775,0.007954381255,0.008061891602,0.00805326326,0.007944668603,0.007739223368,0.007444016522,0.007060003791,0.006593600785,0.006055183191,0.0054556765,0.004797029266,0.004097081583,0.003371131304,0.002644995041,0.001972982357,0.001384679138,0.0008986661126,0.0005298220454,0.0003049388124,0.0002219928704,0.0002860759483,0.0004787496907,0.0007252477235,0.001000739527,0.001290139584,0.00158710474,0.001921053712,0.002287058826,0.002682829561,0.003092065178,0.003450536136,0.003739382352,0.003957938881,0.004106157817,0.004202451585,0.004252935459,0.004253054533,0.004205869384,0.004120311091,0.003999688046,0.003852028816,0.003680217376,0.003468235852,0.003217739144,0.002946958443,0.002664059087,0.002373788748,0.002082169966,0.001783139539,0.00147986054,1.20E-03,9.35E-04,0.0006933003696,0.0004632420365,0.0001996768106,-0.0001074896152,-0.0004413015506,-0.0007955271903,-0.00117368766,-0.001561457093,-0.001956804896,-0.002339901377,-0.002632854622,-0.002814697698,-0.0028929056,-0.002871883089,-0.00276899577,-0.002598149439,-0.002361103667,-0.0020721193,-0.001769989014,-0.00147001771,-0.001182494803,-0.0009131787458,-0.0006509671627,-0.000400178691,-0.0001640553066,4.93E-05,2.07E-04,0.0003032434742,0.0003390493443,0.0003209868555,0.0002689848692,0.0001911718233,0.0001072372366,2.05E-05,-9.13E-05,-0.0002346092111,-0.0003961773659,-0.0005804837409,-0.000802363666,-0.001057056677,-0.001351138773,-0.001669005845,-0.001950900977,-0.002174731293,-0.00232560738,-0.002394209998,-0.002399462468,-0.002344465278,-0.002229403569,-0.002056607905,-0.001818118998,-0.001515372134,-0.001171267411,-0.0007926753754,-0.0003596255608,0.0001135713791,0.0006329939712,0.001171985059,0.001618441371,0.00194442484,0.002137733007,0.002203533215,0.002219089883,0.002199163588,0.002131140888,0.002011121471,0.001798315658,0.001485548707,0.001123985589,0.0007269261291,0.0002364771967,-0.0003176571143,-0.000924609962,-0.001522635914,-0.001884274255,-0.001943576042,-0.001706160593,-0.001179962283,-0.0004303116436,0.0005096902345,0.001631711531,0.002909689888,0.004293110511,0.005752067818,0.007272156001,0.008832127811,0.01040368035,0.01196885456,0.01350642911,0.01500154743,0.01646534248,0.01788785625,0.01922774234,0.02046592563,0.02161473628,0.02264452793,0.02356001126,0.02432013454,0.02475016564,0.02480590303,0.0245006957,0.02385053299,0.02290346773,0.02169871637,0.02026776138,0.01865288408,0.01691714765,0.01511281246,0.01326096257,0.01140940675,0.009656165175,0.008033240437,0.006596520394,0.005344667364,0.004164603207,0.003028699104,0.001949112731,0.0009243250654,-2.69E-05,-0.0008995768887,-0.001704542069,-0.002441977557,-0.003093026604,-0.003652706837,-0.004142800476,-0.004565395228,-0.004886059621,-0.005112264068,-0.005247052123,-0.005311137947,-0.005401018607,-0.005550446485,-0.005711745455,-0.005888458782,-0.006169246075,-0.006538503767,-0.007005904027,-0.007513489656,-0.007817969421,-0.007850371138,-0.007584763946,-0.00702145435,-0.00627734967,-0.005417771234,-0.004527367213,-0.003698065471,-0.002921234529,-0.002324749628,-0.002131201817,-0.00256073864,-0.003787840584,-0.00588832513,-0.008781265064,-0.01230617087,-0.01629516707,-0.0204411222,-0.02432585567,-0.02751259051,-2.96E-02,-0.0300550104,-0.02877165796,-0.02547974382,-0.01993462039,-0.0120063231,-0.001602908947,0.01132590742,0.02670292338,0.04437786913,0.06407474175,0.08542605617,0.108053742,0.1313401451,0.1545055867,0.1766472849,0.1967950163,0.2141172042,0.2279009788,0.2375965065,0.242843953,0.243484141,0.2396677133,0.2317070564,0.2199596318,0.20496412,0.1873061202,0.1676376083,0.146794118,0.1254191047,0.1040110176,0.08303099615,0.06286107118,0.04387125687,0.02644831924,0.01092457499,-0.002457546693,-0.01356994751,-0.02248561544,-0.02935499755,-0.03433488349,-0.03772383173,-3.99E-02,-0.04124107572,-4.23E-02,-0.04330119657,-0.04440657868,-0.04562373778,-0.0469923382,-0.0484479207,-0.04994449458,-0.05137696428,-0.05242189107,-0.05297281751,-0.05307384353,-0.05274607329,-0.05202654688,-0.05097891686,-0.04959781339,-0.04795911412,-0.04633819789,-0.04482512695,-0.04341410527,-0.04211690225,-0.04091186977,-0.039781423,-0.03875718155,-0.03781934948,-0.03684327134,-0.0357934406,-0.03469201549,-0.03353693629,-0.03231893289,-0.03105366877,-0.0297041332,-0.02829692965,-0.02698920646,-0.02582428472,-0.02479118856,-0.02388941684,-0.02309134446,-0.02238175391,-0.02177487984,-0.02125806197,-0.02077280454,-0.02030071238,-0.019843367,-0.01939827619,-0.01896995376,-0.01856085935,-0.01816549305,-0.0177861812,-0.017440788,-0.01713174729,-0.01685939638,-0.0166197017,-0.01639551272,-0.01618226557,-0.01597208273,-0.01576398829,-0.01557987331,-0.01542370806,-0.01527450207,-0.01512909477,-0.01500791123,-0.01489936074,-0.01482170612,-0.01475151738,-0.01456895108,-0.01424176573,-0.01377370828,-0.01316798076,-0.01245812826,-0.01165683396,-0.01076609492,-0.009793136177,-0.008744055655,-0.007625065378,-0.006450668167,-0.005227463738,-0.003947592944,-0.002620375107,-0.001245864843,0.0001607236018,0.001543522893,0.002886733528,0.004182977941,0.005432979249,0.006667805665,0.007891542352,0.009106067962,0.01030773417,0.01146106706,0.01255797332,0.01362161141,0.01465634378,0.01564025681,0.01658690053,0.01748851478,0.01837095274,0.01935325122,0.02046550142,0.02170291282,0.02305803348,0.02448704236,0.02597142703,0.02750521203,0.02907620969,0.03067608576,0.03229490666,0.03390533966,0.03549578129,0.03708481184,0.03865601349,0.04020562591,0.04170572045,0.04305370842,0.04421659652,0.04519928571,0.04599894146,0.04662043998,0.04707167117,0.04734831785,0.0474603183,0.04745499358,0.04734705712,0.04712272479,0.04678275832,0.04634302396,0.04579567157,0.04515384891,0.04440109874,0.04344604792,0.04227105063,0.04087435477,0.03926869219,0.03752196308,0.03565323206,0.03367677642,0.03159771756,0.02936494841,0.02697527653,0.02448340817,0.02190819781,0.01921617898,0.01644287251,0.01358605509,0.01070488078,0.008033456444,0.005640497227,0.003520044583,0.001670356257,4.11E-05,-0.001392047039,-0.002626944383,-0.003682672967,-0.004609756545,-0.005428575866,-0.006155816321,-0.006799857888,-0.007342676006,-0.007791754337,-0.008150467272,-0.008434358522,-0.008699217518,-0.008962349538,-0.009225405655,-0.009489327767,-0.009740391962,-0.009974616742,-0.01019336763,-0.01039501009,-0.01057773601,-0.01074042957,-0.01087709837,-0.01098661733,-0.01107737639,-0.01114675961,-0.01119678496,-0.01122115069,-0.01118945449,-0.01109436961,-0.0109373439,-0.01072077965,-0.01045707378,-0.01015145987,-0.00980593768,-0.009423925888,-0.009006843681,-0.00855732695,-0.008083797693,-0.007589725599,-0.007069230787,-0.006527336746,-0.005965312449,-0.005391749837,-0.004838404616,-0.004315668391,-0.003820902113,-0.003355192298,-0.002919819356,-0.002512189938,-0.002134677346,-0.001783092226,-0.001435292443,-0.001085302337,-0.0007385841957,-0.0003961226011,-5.61E-05,0.0002772440735,0.0006059467657,0.0009233642955,0.001200203956,0.001428865086,0.001609402532,0.001743370219,0.001842575915,0.001910916853,0.00195076242,0.001963801257,0.001945952113,0.001898703213,0.001826338497,0.001733156257,0.0016233603,0.001501294134,0.001376591907,0.001254576373,0.001130187431,0.00100970752,0.0009011372623,0.0008133792801,0.0007743504674,0.0007880814345,0.0008570671498,0.0009741348588,0.001104247318,0.001236717178,0.001366185015,0.001490868613,0.001625274507,0.001768392752,0.001919833417,0.002073402432,0.002202458108,0.002299597843,0.002365417911,0.002400563736,0.002412632242,0.002404720848,0.002376783039,0.002330883408,0.002270249904,0.002196423149,0.002114671721,0.002026672885,0.001923165002,0.001805384524,0.001682339207,0.001558743031,0.001442090906,0.001335320147,0.001239473077,0.001154781179,0.001078819302,0.001010464283,0.0009499652415,0.0008964011472,0.0008470092242,0.0008006849447,0.0007569161621,0.0007152987314,0.0006759884138,0.0006386172595,0.0006035073877,0.0005700653691,0.0005362837126,0.0005020515503,0.0004647141086,0.000425012831,0.0003898980466,0.000359046342,0.0003376656267,0.0003233050645,0.0002929178359,0.0002440183796,0.0001791189015,0.0001039222339,4.03E-05,-6.18E-06,-3.29E-05,-4.16E-05,-4.61E-05,-5.16E-05,-5.84E-05,-6.88E-05,-8.50E-05,-0.000106808903,-0.0001350684392,-0.0001682849271,-0.0001997285686,-0.0002273132561,-0.0002497691605,-0.0002667572246,-0.000281279719,-0.0002930126309,-3.03E-04,-3.09E-04,-0.0003038509029,-0.0002872962164,-0.0002557919905,-0.0002094658781,-0.0001616409827,-0.0001141351974,-5.52E-05,1.70E-05,9.85E-05,0.0001876499001,0.0002848190377,0.0003862647779,0.0004903626596,0.0005965436343,0.000675232436,0.0007276396292,0.0007973704335,0.0008926776551,0.001019998605,0.001176842064,0.001324692501,0.001460723421,0.001590044116,0.00172131214,0.001901573787,0.002141715607,0.002422261366,0.002737556604,0.003095057609,0.003478852051,0.003895969087,0.004321645778,0.004652185606,0.004861552765,0.004939409637,0.004891877865,0.004784021496,0.0046276197,0.004435272391,0.004203974633,0.00385712326,0.003383532868,0.002835366473,0.002231788285,0.00154728716,0.0008181278763,5.36E-05,-0.0006867303532,-0.001199575031,-0.001414926789,-0.001327127813,-0.0009265635226,-0.0002191136703,0.0007753969927,0.002056315219,0.003588178026,0.005274178267,0.007070575472,0.008929703347,0.01082520687,0.0127937908,0.01480571116,0.01684345974,0.0188553947,0.0206753901,0.0222518939,0.02356274037,0.02460494529,0.02545354144,0.02611740315,0.02659543428,0.02687450321,0.02688748032,0.02661913126,0.02606420734,0.02522979175,0.02415771936,0.02288240021,0.02142284813,0.01981877932,0.01814454727,1.64E-02,1.48E-02,0.01312505753,0.01154669806,0.01004654977,0.008630825635,0.007314178868,0.006141586504,0.005124835765,0.004254736019,0.003526501279,0.002933615251,0.002462902754,0.00211378942,0.001868876597,0.001675725532,0.00151707711,0.001372626779,0.001237175716,0.001156604793,0.001129069225,0.00113141553,0.00114247849,0.001124231113,0.001062904617,0.0009329241115,0.0007374798589,0.0005212121871,0.0002977857653,9.14E-05,-8.61E-05,-0.0002902990295,-0.0005139735235,-0.0006756764554,-0.0007403719599,-0.0007235845694,-0.0006150673438,-0.000450370062,-0.00023412451,0.0001492711244,0.0006967313802,0.001284569791,0.001852173807,0.002411654025,0.002895696404,0.003274916995,0.003475636423,0.003237790555,0.002473379297,0.001145435753,-0.0007891699573,-0.003248710731,-0.006142552694,-0.009317204269,-0.01254653774,-0.01560945213,-0.01812998708,-0.01961490378,-0.01950786995,-0.01728632825,-0.01259153675,-0.005251382729,0.004716873862,0.01715815914,0.03173805646,0.04794075121,0.06514661838,0.08273211403,0.1000525992,0.1165682892,0.1317675781,0.1450152833,0.1559204564,0.1642445541,0.1698029234,0.1724711942,0.1721875008,0.1688915516,0.1626085859,0.1534920648,0.1417829693,0.1278951938,0.11232807,0.09559214424,0.0783020989,0.06114676286,0.04479482593,0.02988704627,0.01687464339,0.00588407917,-0.003068954415,-0.009972472088,-0.01503520698,-0.0184707438,-0.02063533715,-0.02223419265,-0.02360138254,-0.02486046179,-0.02606291464,-0.02706100046,-0.02783343362,-0.02843502804,-0.02888573213,-0.02920225748,-0.02939926325,-0.02950331904,-0.02952622299,-0.02945839929,-0.02930855625,-0.02908288542,-0.02879481636,-0.02848522358,-0.0281683874,-0.02784500239,-0.02751753279,-0.02718326783,-0.02684038438,-0.02649190141,-0.02613563298,-0.02575821143,-0.02535644199,-0.02493221248,-0.02448652506,-0.02402239388,-0.02354227612,-0.02304625508,-0.02253676092,-0.02202091339,-0.0215011696,-0.02097935953,-0.0204560888,-0.0199276112,-0.01939412519,-0.01885669051,-0.0183166059,-0.0177793457,-0.01724735368,-0.01671587397,-0.01618567381,-0.01566789404,-0.01516165214,-0.01466862392,-0.01418413143,-0.01367975707,-0.01314766658,-0.01260077402,-0.01204052447,-0.01145305307,-0.01084554855,-0.01021386192,-0.009572571797,-0.008989998041,-0.008484172384,-0.008048257742,-0.007678318258,-0.007361617054,-0.007086114216,-0.00684712422,-0.006632050657,-0.006406673863,-0.006154195529,-0.005881509599,-0.005579959732,-0.005215548399,-0.004785397263,-0.004276452247,-0.003698164662,-0.003120175348,-0.002560822538,-0.002004102722,-0.001447484593,-0.0008964064097,-0.0003401278214,0.0002184413522,0.0007955271137,0.001463306402,0.002243142616,0.003119891127,0.004092615334,0.005170674753,0.006342668317,0.007614920933,0.008968328036,0.01031421429,0.01162875673,0.01292169123,0.01419718101,0.01546941915,0.01675317074,0.01803810386,0.01933752885,0.02072605334,0.02221974786,0.02379779002,0.02545002453,0.02716700871,0.02892674517,0.0307267129,0.03253908996,0.03427570114,0.03590656165,0.03741719824,0.0388017104,0.04009094891,0.041283903,0.0423784503,0.04336422983,0.04419375258,0.04485398837,0.04535413401,0.04569640792,0.04588062208,0.04591536923,0.04580052116,0.0455481429,0.04520431093,0.04478442097,0.04428262295,0.04370122026,0.04304672528,0.04231500239,0.04151543857,0.04063969021,0.03963651662,0.03849691822,0.03722027291,0.03581489759,0.0343220868,0.03275360135,0.03111870106,0.02942065628,0.02762767143,0.02573785794,0.02378501316,0.02178097947,0.01970573284,0.01758136464,0.01540689064,0.01321882681,0.01116069188,0.009274922677,0.007557866945,0.006008871075,0.004598459875,0.00331208151,0.002151518602,0.001105125787,0.0001402577953,-0.0007557715254,-0.001591757211,-0.002372353272,-0.003087374857,-0.003740477732,-0.004333707285,-0.00487505207,-0.005392664953,-0.005895285839,-0.006384442918,-0.006860641951,-0.007315713808,-0.007747855061,-0.008157436206,-0.008544304634,-0.008911303735,-0.00925874543,-0.009582902999,-9.88E-03,-0.01016208031,-0.01041851823,-0.01065278819,-0.01086083601,-0.01102480653,-0.01113980386,-0.01120740658,-0.01122836239,-0.01120574943,-0.01114203809,-0.01103878541,-0.01089669453,-0.01072576377,-0.01053157271,-0.01028384187,-0.009983217756,-0.009695475716,-0.009422593097,-0.009197694999,-0.009009631293,-0.008690800623,-0.00822791389,-0.00769361945,-0.007146476067,-0.006658719032,-0.006279461945,-0.006003297127,-0.005840163573,-0.005875352868,-0.006092628507,-0.006431201698,-0.006817034417,-0.007136459194,-0.007329476884,-0.007366079731,-0.007233737806,-0.006955435244,-0.006542797506,-0.006005611074,-0.005360094286,-0.004624915864,-0.0038116648,-0.002951318527,-0.002052408132,-0.001080859274,-4.69E-05,0.001007889723,0.00204955195,0.00305532242,0.003985105224,0.004781734769,0.005397432045,0.005779611576,0.005912773967,0.005832857063,0.005581229674,0.00520085486,0.004746454839,0.004309765498,0.003953853622,0.00371586455,0.003631650945,0.003681988183,0.003865375878,0.004219127755,0.004718016824,0.005343446491,0.006044509324,0.006648873967,0.00710033724,0.007398552878,0.007542144238,0.007566971783,0.007491564204,0.00731202522,0.007044428827,0.006737783378,0.0064099626,0.006073309756,0.005733342256,0.005371394458,0.004991558843,0.00459576125,0.004195194705,0.00383403648,0.003525332495,0.0032669545,0.003058527224,0.002892746467,0.002764778572,0.002674607108,0.002617660747,0.002579700129,0.002554943339,0.002544162005,0.002544987377,0.002553081017,0.002568341897,0.002583639476,0.002599979837,0.002639200334,0.002702569747,0.002784517622,0.002878948549,0.002963580609,0.003032422338,0.003086274622,0.003125892306,0.003160255033,0.003193824729,0.00321896142,0.003238020048,0.003273065018,0.003324849898,0.00339423688,0.003473941271,0.003527911311,0.003545502156,0.003531930025,0.003487093864,0.003409738751,0.003304012319,0.003166640445,0.003003689854,0.00284638887,0.00270259106,0.002566460919,0.002435104931,0.002306748011,0.002175908238,0.00203215833,0.001869020956,0.001676081182,0.001451035664,0.001190254805,0.00089617053,0.0005846267303,0.0002592231434,-7.48E-05,-0.0004170359849,-0.0007868439216,-0.001186847929,-0.001601118195,-0.002024889164,-0.002468938791,-0.002923201788,-0.003389735541,-0.003851275719,-0.004236419638,-0.004525231201,-0.004719225956,-0.004820250911,-0.004848818915,-0.004813492052,-0.004714754827,-0.004558371044,-0.00435339635,-0.004104754528,-0.003824069197,-0.003515192525,-0.003164428678,-0.00277703799,-0.002355584425,-0.00191120315,-0.0014887582,-0.001103857252,-0.0007424132245,-0.0004073658601,-0.0001217995215,0.000120882105,0.0003011647869,0.0004346954515,0.0006344901635,0.0009196539343,0.001269267351,0.00166106728,0.00204310283,0.002392950362,0.002700586642,0.002961383191,0.003167632921,0.003323757341,0.003453193259,0.00357000903,0.003675386889,0.003792986273,0.003913942986,0.004067372611,0.004383218154,0.004893062579,0.005587688197,0.006455429828,0.007449522823,0.008546014254,0.009725957128,0.01096813811,0.0122697846,0.01359739941,0.01493548522,0.01623263213,0.01737525314,0.01831758232,0.01899177551,0.01938401184,0.01958429298,0.01961283197,0.01947930457,0.01919799036,0.01874464429,0.01813375105,0.01740257568,0.01657818635,0.01571037421,0.01482081503,0.0139167668,0.01300504529,0.01208374009,0.01115260867,0.0102197275,0.009284188438,0.008326968062,0.007346059805,0.006344208482,0.005324844352,0.004306739353,0.003298053951,0.002280747927,0.001260649166,0.0002699296121,-0.0006803069216,-0.00157381172,-0.002405099452,-0.003199541904,-0.00394582215,-0.00464902016,-0.005289021816,-0.0057781312,-0.006094807944,-0.006235044816,-0.00620475479,-0.006053455462,-0.00579474699,-0.005431386176,-0.004959383948,-0.004375548877,-0.003665495309,-0.002800742833,-0.001928606826,-0.00104343159